1502540489.00
64.000000
-0.00
-0.00
-0.00
-0.00
-0.00
-0.00
-0.00
-0.00
-0.00
-0.00
0.00
0.01
0.01
-0.00
-0.03
-0.05
-0.05
0.00
0.13
0.36
0.66
1.01
1.37
1.72
2.06
2.40
2.79
3.24
3.80
4.42
5.06
5.66
6.20
6.68
7.15
7.68
8.31
9.14
10.09
11.04
11.88
12.56
13.14
13.76
14.65
15.96
17.91
20.32
22.90
25.38
27.58
29.57
31.68
34.32
37.81
42.54
48.15
54.10
59.83
64.97
69.58
74.14
79.34
85.71
93.76
103.00
112.62
121.73
129.77
136.75
143.30
150.75
157.77
166.64
177.95
191.79
206.97
220.57
228.25
225.36
208.53
176.87
132.76
80.05
23.07
-34.94
-92.44
-149.16
-205.23
-260.37
-313.74
-363.87
-409.83
-450.91
-486.50
-515.74
-537.23
-549.22
-549.96
-538.37
-514.21
-478.67
-433.88
-382.45
-327.02
-269.84
-212.63
-156.66
-102.95
-52.37
-5.90
35.58
71.43
101.35
125.50
144.38
158.69
169.15
176.37
180.75
182.58
182.07
179.51
175.23
169.65
163.17
156.14
148.81
141.32
133.72
126.05
118.33
110.64
103.03
95.60
88.41
81.51
74.92
68.64
62.65
56.94
51.50
46.35
41.51
37.01
32.84
29.02
25.51
22.26
19.23
16.39
13.75
11.35
9.24
7.48
6.03
4.84
3.77
2.71
1.59
0.44
-0.66
-1.54
-2.10
-2.34
-2.40
-2.52
-2.90
-3.69
-4.81
-6.01
-6.99
-7.50
-7.51
-7.24
-7.08
-7.42
-8.45
-10.05
-11.84
-13.35
-14.21
-14.37
-14.06
-13.71
-13.77
-14.56
-16.28
-18.97
-22.34
-25.63
-27.56
-26.62
-21.72
-12.83
-1.22
10.84
20.95
27.48
30.18
29.95
28.22
26.19
24.40
22.78
21.06
19.14
17.28
15.91
15.40
15.77
16.71
17.66
18.11
17.86
17.06
16.13
15.50
15.32
15.43
15.41
14.89
13.80
12.45
11.35
10.99
11.60
13.07
15.03
16.97
18.47
19.28
19.37
18.83
17.78
16.32
14.41
12.00
9.13
5.75
2.03
-1.79
-5.46
-8.82
-11.75
-14.23
-16.22
-17.68
-18.66
-19.22
-19.48
-19.58
-19.51
-19.14
-18.25
-16.69
-14.45
-11.80
-9.15
-6.92
-5.40
-4.62
-4.43
-4.54
-4.67
-4.66
-4.49
-4.22
-3.98
-3.81
-3.71
-3.60
-3.38
-3.02
-2.54
-2.06
-1.69
-1.49
-1.41
-1.40
-1.41
-1.44
-1.53
-1.72
-1.97
-2.23
-2.41
-2.47
-2.42
-2.34
-2.31
-2.39
-2.59
-2.93
-3.44
-4.11
-4.89
-5.71
-6.50
-7.18
-7.68
-7.90
-7.58
-6.50
-4.54
-1.76
1.57
5.00
8.08
10.45
12.01
12.82
13.05
12.87
12.43
11.82
11.14
10.49
9.98
9.72
9.74
9.98
10.27
10.38
10.13
9.42
8.36
7.15
6.06
5.28
4.85
4.58
4.23
3.51
2.31
0.64
-1.29
-3.18
-4.72
-5.69
-6.00
-5.83
-5.55
-5.68
-6.62
-8.42
-10.69
-12.56
-13.05
-11.46
-7.69
-2.47
2.98
7.41
10.14
11.39
12.14
13.65
16.79
21.46
26.66
30.84
32.70
31.89
29.24
26.65
26.43
30.62
40.23
54.82
72.32
89.24
101.18
103.69
93.49
69.78
35.26
-4.01
-40.18
-66.22
-78.56
-78.30
-70.32
-60.62
-53.51
-49.92
-48.02
-45.35
-40.98
-36.16
-33.25
-33.63
-36.40
-38.64
-37.30
-31.06
-21.18
-10.62
-2.26
2.71
5.24
7.71
12.42
20.39
31.04
42.66
53.36
61.84
67.79
71.66
74.28
76.35
78.20
79.74
80.60
80.20
77.80
72.69
64.45
53.23
39.94
26.16
13.69
3.90
-2.68
-6.57
-9.14
-12.13
-17.20
-25.51
-37.55
-53.00
-70.78
-89.18
-106.11
-119.45
-127.58
-129.83
-126.94
-120.96
-114.85
-111.49
-112.60
-117.91
-125.09
-130.56
-130.85
-123.97
-109.98
-90.80
-69.17
-47.60
-27.63
-9.70
6.34
20.71
33.39
44.12
52.73
59.47
65.06
70.44
76.42
83.20
90.30
96.74
101.39
103.31
102.04
97.66
90.79
82.42
73.71
65.61
58.56
52.29
45.89
38.35
28.99
17.89
5.82
-6.10
-17.00
-26.60
-35.27
-43.76
-52.72
-62.44
-72.71
-82.95
-92.52
-100.79
-107.24
-111.28
-112.33
-110.17
-105.32
-99.21
-93.54
-89.45
-86.63
-83.22
-76.66
-65.14
-48.61
-28.92
-8.68
10.18
27.37
44.10
61.88
81.27
101.28
119.66
133.92
142.10
143.14
136.89
123.91
105.44
83.48
60.61
39.55
22.38
9.87
1.30
-5.13
-11.33
-18.53
-26.76
-35.03
-42.01
-46.66
-48.66
-48.33
-46.09
-42.22
-36.93
-30.79
-24.93
-20.68
-18.90
-19.58
-21.80
-24.47
-27.00
-29.55
-32.49
-35.64
-37.89
-37.59
-33.58
-26.09
-16.88
-8.37
-2.33
0.96
2.57
3.91
5.76
7.83
9.17
8.94
7.05
4.25
1.77
0.53
0.75
1.80
2.67
2.46
0.85
-1.84
-4.91
-7.63
-9.63
-10.85
-11.45
-11.63
-11.45
-10.90
-9.93
-8.61
-7.10
-5.61
-4.32
-3.30
-2.53
-1.91
-1.32
-0.69
0.08
1.04
2.21
3.63
5.29
7.20
9.31
11.46
13.44
14.98
15.90
16.15
15.85
15.24
14.51
13.79
13.08
12.33
11.46
10.38
8.99
7.15
4.77
1.89
-1.27
-4.35
-6.97
-8.88
-10.00
-10.37
-10.08
-9.17
-7.69
-5.67
-3.21
-0.45
2.44
5.26
7.81
9.86
11.24
11.89
11.91
11.56
11.15
10.92
10.93
11.08
11.18
11.10
10.78
10.31
9.77
9.31
9.01
8.88
8.83
8.70
8.27
7.41
6.10
4.51
2.86
1.32
-0.11
-1.61
-3.41
-5.58
-7.98
-10.21
-11.82
-12.46
-11.98
-10.47
-8.18
-5.43
-2.48
0.44
3.20
5.73
7.97
9.88
11.41
12.55
13.29
13.68
13.79
13.73
13.55
13.34
13.07
12.74
12.37
12.00
11.72
11.56
11.50
11.44
11.22
10.69
9.78
8.49
6.94
5.29
3.63
2.02
0.36
-1.51
-3.71
-6.30
-9.18
-12.07
-14.62
-16.47
-17.40
-17.34
-16.35
-14.57
-12.17
-9.33
-6.23
-3.12
-0.23
2.21
4.08
5.35
6.13
6.62
7.10
7.78
8.78
10.04
11.35
12.44
13.10
13.30
13.17
12.92
12.68
12.43
12.05
11.39
10.44
9.26
8.04
6.88
5.82
4.74
3.54
2.11
0.43
-1.50
-3.61
-5.83
-8.03
-9.97
-11.35
-11.88
-11.41
-10.05
-8.06
-5.76
-3.41
-1.08
1.25
3.59
5.87
7.91
9.50
10.50
10.94
10.96
10.71
10.31
9.81
9.21
8.53
7.84
7.26
6.88
6.72
6.70
6.69
6.52
6.07
5.29
4.20
2.89
1.48
0.05
-1.30
-2.57
-3.76
-4.95
-6.24
-7.78
-9.61
-11.68
-13.78
-15.59
-16.79
-17.20
-16.77
-15.66
-14.07
-12.15
-9.94
-7.43
-4.59
-1.46
1.78
4.89
7.66
9.96
11.82
13.31
14.52
15.50
16.22
16.67
16.87
16.85
16.68
16.41
16.06
15.60
15.04
14.39
13.67
12.86
11.94
10.84
9.54
8.03
6.41
4.76
3.13
1.48
-0.25
-2.13
-4.17
-6.28
-8.29
-10.07
-11.50
-12.56
-13.24
-13.49
-13.27
-12.50
-11.14
-9.24
-6.88
-4.22
-1.38
1.48
4.20
6.61
8.55
9.86
10.46
10.37
9.70
8.69
7.61
6.69
6.06
5.70
5.44
5.14
4.70
4.16
3.62
3.20
2.96
2.85
2.76
2.57
2.19
1.60
0.87
0.06
-0.74
-1.54
-2.36
-3.31
-4.49
-5.91
-7.55
-9.30
-11.08
-12.79
-14.34
-15.60
-16.38
-16.47
-15.79
-14.32
-12.22
-9.66
-6.85
-3.91
-0.99
1.79
4.26
6.26
7.73
8.74
9.45
10.05
10.68
11.38
12.12
12.81
13.35
13.64
13.64
13.32
12.73
11.98
11.20
10.47
9.76
8.97
7.97
6.73
5.35
4.02
2.92
2.13
1.56
1.00
0.24
-0.83
-2.19
-3.73
-5.29
-6.76
-8.00
-8.91
-9.38
-9.33
-8.72
-7.62
-6.15
-4.47
-2.75
-1.07
0.55
2.11
3.58
4.89
5.89
6.48
6.60
6.36
5.92
5.49
5.22
5.13
5.10
4.98
4.64
4.11
3.49
2.92
2.46
2.07
1.61
0.94
0.04
-0.98
-2.01
-2.97
-3.88
-4.81
-5.83
-6.91
-8.00
-9.00
-9.98
-11.04
-12.36
-13.98
-15.76
-17.40
-18.49
-18.67
-17.77
-15.85
-13.14
-10.02
-6.87
-4.00
-1.61
0.23
1.52
2.30
2.59
2.51
2.19
1.80
1.53
1.47
1.56
1.71
1.80
1.77
1.63
1.46
1.28
1.07
0.79
0.40
-0.04
-0.44
-0.69
-0.75
-0.64
-0.44
-0.28
-0.22
-0.33
-0.60
-1.05
-1.68
-2.47
-3.45
-4.62
-5.98
-7.47
-8.90
-10.01
-10.52
-10.26
-9.23
-7.63
-5.73
-3.81
-1.99
-0.31
1.26
2.70
3.96
4.97
5.75
6.39
7.05
7.82
8.67
9.49
10.15
10.62
10.95
11.25
11.58
11.87
11.96
11.71
11.08
10.14
9.03
7.89
6.76
5.61
4.44
3.24
2.10
1.09
0.26
-0.46
-1.13
-1.90
-2.86
-4.05
-5.44
-6.97
-8.46
-9.73
-10.58
-10.86
-10.53
-9.59
-8.16
-6.36
-4.33
-2.16
0.04
2.13
3.98
5.43
6.37
6.75
6.66
6.26
5.72
5.17
4.65
4.16
3.69
3.29
3.00
2.87
2.88
2.90
2.82
2.59
2.27
2.01
1.99
2.23
2.61
2.91
2.93
2.62
2.02
1.28
0.52
-0.20
-0.91
-1.63
-2.36
-3.14
-3.97
-4.96
-6.14
-7.44
-8.62
-9.36
-9.35
-8.43
-6.69
-4.45
-2.12
-0.07
1.43
2.31
2.67
2.66
2.43
2.06
1.54
0.86
0.07
-0.69
-1.24
-1.44
-1.30
-0.98
-0.75
-0.79
-1.10
-1.46
-1.63
-1.47
-1.04
-0.63
-0.49
-0.79
-1.43
-2.22
-2.88
-3.28
-3.43
-3.48
-3.65
-4.06
-4.76
-5.69
-6.76
-7.87
-8.91
-9.74
-10.18
-10.05
-9.20
-7.59
-5.34
-2.69
0.05
2.63
4.93
6.96
8.77
10.37
11.65
12.52
12.90
12.92
12.83
12.91
13.37
14.13
14.92
15.34
15.09
14.08
12.49
10.60
8.63
6.64
4.56
2.28
-0.12
-2.40
-4.24
-5.43
-6.04
-6.35
-6.76
-7.59
-8.95
-10.81
-13.09
-15.74
-18.70
-21.83
-24.87
-27.40
-28.98
-29.27
-28.20
-25.95
-22.84
-19.26
-15.57
-12.03
-8.82
-6.04
-3.75
-1.92
-0.51
0.62
1.62
2.68
3.95
5.49
7.29
9.23
11.12
12.78
14.06
14.91
15.37
15.50
15.36
14.92
14.09
12.74
10.84
8.51
5.98
3.54
1.37
-0.54
-2.33
-4.24
-6.44
-8.91
-11.51
-13.98
-16.09
-17.64
-18.49
-18.51
-17.62
-15.82
-13.27
-10.24
-7.14
-4.31
-2.01
-0.31
0.84
1.59
2.04
2.25
2.24
2.04
1.76
1.54
1.55
1.93
2.66
3.62
4.61
5.38
5.80
5.80
5.46
4.83
3.99
2.97
1.81
0.60
-0.56
-1.58
-2.52
-3.57
-5.02
-7.06
-9.71
-12.69
-15.54
-17.78
-19.03
-19.15
-18.19
-16.34
-13.88
-11.07
-8.13
-5.24
-2.55
-0.11
2.02
3.85
5.40
6.71
7.82
8.76
9.57
10.27
10.85
11.32
11.68
11.95
12.14
12.21
12.14
11.87
11.36
10.62
9.65
8.50
7.23
5.87
4.45
2.99
1.50
-0.04
-1.65
-3.34
-5.14
-7.04
-9.01
-10.89
-12.47
-13.44
-13.53
-12.59
-10.67
-7.99
-4.88
-1.70
1.30
3.94
6.14
7.86
9.08
9.87
10.30
10.50
10.58
10.58
10.48
10.33
10.19
10.19
10.46
10.98
11.62
12.11
12.23
11.87
11.08
10.01
8.76
7.36
5.79
4.03
2.15
0.22
-1.70
-3.67
-5.79
-8.14
-10.62
-12.94
-14.70
-15.53
-15.25
-13.88
-11.64
-8.81
-5.70
-2.57
0.34
2.87
4.90
6.43
7.51
8.24
8.73
9.09
9.37
9.58
9.71
9.76
9.68
9.48
9.18
8.87
8.61
8.48
8.42
8.31
8.03
7.45
6.55
5.38
4.00
2.46
0.74
-1.21
-3.45
-5.95
-8.58
-11.14
-13.34
-14.89
-15.56
-15.20
-13.86
-11.69
-8.95
-5.95
-2.92
-0.05
2.52
4.69
6.37
7.49
8.06
8.14
7.82
7.24
6.53
5.78
5.12
4.65
4.45
4.56
4.88
5.22
5.35
5.06
4.23
2.93
1.31
-0.41
-2.01
-3.38
-4.52
-5.50
-6.45
-7.54
-8.90
-10.63
-12.66
-14.78
-16.59
-17.65
-17.58
-16.25
-13.80
-10.62
-7.18
-3.84
-0.75
2.08
4.67
7.00
8.93
10.29
10.98
11.06
10.77
10.37
10.08
9.97
10.00
10.06
10.03
9.90
9.71
9.54
9.41
9.26
8.97
8.38
7.40
6.05
4.43
2.68
0.91
-0.82
-2.54
-4.32
-6.18
-8.10
-9.94
-11.55
-12.73
-13.33
-13.22
-12.34
-10.73
-8.52
-5.91
-3.20
-0.69
1.37
2.81
3.63
3.91
3.84
3.60
3.35
3.13
2.97
2.83
2.67
2.50
2.36
2.28
2.28
2.29
2.21
1.97
1.55
1.01
0.42
-0.18
-0.81
-1.58
-2.53
-3.71
-5.07
-6.56
-8.17
-9.88
-11.68
-13.44
-14.92
-15.80
-15.81
-14.81
-12.85
-10.14
-6.99
-3.70
-0.55
2.27
4.64
6.49
7.85
8.78
9.40
9.83
10.17
10.48
10.83
11.28
11.83
12.42
12.90
13.14
13.03
12.60
11.97
11.28
10.58
9.79
8.75
7.34
5.58
3.66
1.85
0.38
-0.68
-1.48
-2.31
-3.44
-5.04
-7.07
-9.34
-11.52
-13.20
-14.03
-13.77
-12.36
-10.00
-7.09
-4.11
-1.48
0.57
2.03
3.06
3.85
4.51
5.03
5.32
5.32
5.03
4.57
4.08
3.69
3.48
3.47
3.64
3.94
4.32
4.72
5.03
5.12
4.86
4.18
3.07
1.62
0.01
-1.56
-2.95
-4.06
-4.92
-5.66
-6.45
-7.50
-8.93
-10.77
-12.85
-14.86
-16.40
-17.09
-16.69
-15.16
-12.69
-9.61
-6.34
-3.19
-0.37
2.02
3.99
5.61
6.91
7.94
8.67
9.11
9.32
9.40
9.50
9.73
10.12
10.58
10.96
11.08
10.88
10.39
9.71
8.98
8.30
7.67
7.02
6.24
5.27
4.07
2.66
1.06
-0.63
-2.35
-4.03
-5.62
-7.08
-8.43
-9.70
-10.98
-12.36
-13.85
-15.35
-16.63
-17.37
-17.33
-16.35
-14.53
-12.10
-9.40
-6.72
-4.30
-2.26
-0.66
0.44
0.98
0.96
0.45
-0.28
-0.90
-1.08
-0.63
0.39
1.70
2.93
3.80
4.20
4.27
4.21
4.24
4.41
4.66
4.87
4.97
4.93
4.80
4.60
4.30
3.82
3.12
2.18
1.08
-0.07
-1.23
-2.42
-3.71
-5.18
-6.74
-8.15
-9.03
-9.03
-8.00
-6.04
-3.48
-0.76
1.79
3.96
5.77
7.32
8.69
9.87
10.80
11.41
11.67
11.66
11.50
11.33
11.20
11.09
10.91
10.59
10.12
9.56
9.02
8.60
8.34
8.13
7.81
7.17
6.08
4.56
2.76
0.88
-0.89
-2.48
-3.93
-5.32
-6.74
-8.23
-9.80
-11.45
-13.20
-15.02
-16.76
-18.16
-18.88
-18.61
-17.27
-15.02
-12.20
-9.15
-6.11
-3.18
-0.36
2.30
4.70
6.67
8.08
8.93
9.34
9.49
9.55
9.61
9.73
9.90
10.16
10.49
10.85
11.15
11.26
11.09
10.60
9.81
8.78
7.59
6.31
5.01
3.74
2.57
1.53
0.59
-0.36
-1.43
-2.73
-4.32
-6.15
-8.11
-10.03
-11.74
-13.08
-13.88
-14.05
-13.52
-12.29
-10.47
-8.25
-5.88
-3.58
-1.47
0.39
2.02
3.47
4.75
5.82
6.67
7.25
7.58
7.68
7.64
7.52
7.40
7.39
7.53
7.80
8.15
8.47
8.67
8.70
8.54
8.22
7.71
6.94
5.87
4.43
2.70
0.85
-0.90
-2.34
-3.38
-4.06
-4.55
-5.06
-5.79
-6.86
-8.26
-9.89
-11.57
-13.02
-13.95
-14.13
-13.42
-11.87
-9.72
-7.36
-5.17
-3.42
-2.15
-1.25
-0.51
0.26
1.11
1.99
2.81
3.46
3.89
4.13
4.18
4.10
3.90
3.65
3.39
3.17
3.02
2.89
2.70
2.32
1.65
0.69
-0.48
-1.71
-2.84
-3.76
-4.50
-5.14
-5.79
-6.49
-7.26
-8.06
-8.91
-9.92
-11.18
-12.72
-14.37
-15.83
-16.73
-16.86
-16.19
-14.88
-13.20
-11.30
-9.24
-7.01
-4.63
-2.30
-0.28
1.16
1.90
1.99
1.68
1.23
0.82
0.53
0.35
0.24
0.19
0.24
0.44
0.82
1.36
2.04
2.79
3.54
4.20
4.68
4.91
4.82
4.41
3.74
2.93
2.16
1.52
1.05
0.62
0.07
-0.77
-1.95
-3.37
-4.80
-5.99
-6.78
-7.10
-7.00
-6.58
-5.95
-5.19
-4.32
-3.37
-2.28
-1.06
0.33
1.81
3.23
4.34
4.94
4.94
4.44
3.71
3.05
2.69
2.69
2.98
3.42
3.90
4.41
4.99
5.68
6.45
7.18
7.75
8.05
8.10
7.93
7.59
7.07
6.31
5.22
3.81
2.18
0.50
-1.07
-2.52
-3.96
-5.56
-7.38
-9.30
-11.01
-12.14
-12.37
-11.57
-9.81
-7.39
-4.62
-1.82
0.80
3.15
5.20
7.00
8.61
10.01
11.17
12.03
12.56
12.84
12.95
13.00
12.99
12.86
12.57
12.11
11.59
11.16
10.94
10.89
10.85
10.60
9.95
8.86
7.45
5.92
4.43
3.09
1.91
0.82
-0.26
-1.40
-2.66
-4.04
-5.52
-7.05
-8.54
-9.84
-10.81
-11.30
-11.20
-10.43
-9.03
-7.14
-4.96
-2.72
-0.58
1.34
3.03
4.46
5.64
6.53
7.11
7.39
7.42
7.30
7.13
6.95
6.76
6.48
6.02
5.38
4.56
3.64
2.71
1.78
0.87
-0.04
-0.95
-1.82
-2.60
-3.29
-3.96
-4.72
-5.63
-6.70
-7.84
-8.95
-9.97
-10.94
-11.93
-12.95
-13.91
-14.63
-14.84
-14.37
-13.21
-11.52
-9.57
-7.59
-5.71
-3.89
-2.04
-0.10
1.88
3.73
5.19
6.05
6.27
5.93
5.29
4.62
4.10
3.78
3.64
3.56
3.49
3.44
3.46
3.63
3.93
4.25
4.40
4.21
3.59
2.58
1.34
0.06
-1.13
-2.21
-3.26
-4.43
-5.84
-7.51
-9.35
-11.16
-12.67
-13.62
-13.83
-13.26
-11.98
-10.16
-8.02
-5.77
-3.57
-1.57
0.07
1.24
1.88
2.05
1.91
1.70
1.58
1.64
1.82
2.01
2.10
2.06
1.91
1.71
1.57
1.54
1.60
1.64
1.52
1.08
0.26
-0.92
-2.29
-3.64
-4.77
-5.62
-6.22
-6.74
-7.38
-8.30
-9.55
-11.06
-12.61
-13.89
-14.56
-14.35
-13.19
-11.23
-8.76
-6.17
-3.80
-1.84
-0.33
0.79
1.61
2.23
2.68
2.96
3.11
3.15
3.14
3.17
3.31
3.62
4.15
4.90
5.79
6.70
7.47
7.98
8.20
8.15
7.92
7.60
7.23
6.87
6.55
6.27
5.95
5.48
4.69
3.48
1.91
0.21
-1.23
-2.02
-1.89
-0.82
1.01
3.19
5.30
6.98
8.04
8.47
8.43
8.15
7.78
7.36
6.86
6.22
5.44
4.64
3.95
3.46
3.15
2.90
2.58
2.13
1.57
0.96
0.37
-0.22
-0.82
-1.48
-2.23
-3.08
-4.03
-5.11
-6.32
-7.67
-9.11
-10.57
-11.99
-13.31
-14.49
-15.42
-15.95
-15.90
-15.12
-13.59
-11.50
-9.17
-6.95
-5.17
-3.95
-3.25
-2.87
-2.58
-2.22
-1.75
-1.19
-0.60
-0.02
0.51
1.02
1.49
1.93
2.35
2.73
3.03
3.20
3.18
2.91
2.39
1.63
0.64
-0.56
-1.95
-3.50
-5.13
-6.83
-8.59
-10.45
-12.37
-14.19
-15.58
-16.15
-15.62
-13.95
-11.43
-8.56
-5.84
-3.60
-1.91
-0.64
0.36
1.19
1.84
2.25
2.42
2.43
2.43
2.58
2.98
3.59
4.28
4.87
5.18
5.10
4.60
3.78
2.81
1.88
1.16
0.68
0.38
0.10
-0.36
-1.12
-2.21
-3.59
-5.20
-6.89
-8.56
-10.01
-11.00
-11.29
-10.69
-9.17
-6.85
-4.00
-0.95
2.02
4.64
6.76
8.26
9.15
9.45
9.33
8.96
8.55
8.20
7.99
7.87
7.75
7.53
7.11
6.47
5.60
4.57
3.50
2.47
1.54
0.73
-0.02
-0.73
-1.42
-2.09
-2.75
-3.41
-4.07
-4.73
-5.33
-5.74
-5.84
-5.49
-4.62
-3.23
-1.35
0.91
3.38
5.89
8.29
10.49
12.51
14.37
16.09
17.59
18.74
19.40
19.54
19.25
18.68
17.95
17.13
16.16
14.97
13.53
11.90
10.24
8.68
7.30
6.06
4.86
3.62
2.31
0.95
-0.41
-1.72
-2.95
-4.05
-4.86
-5.20
-4.90
-3.92
-2.36
-0.44
1.63
3.76
5.92
8.16
10.39
12.40
13.90
14.63
14.54
13.78
12.69
11.57
10.65
9.97
9.44
8.95
8.39
7.68
6.84
5.91
4.97
4.12
3.46
3.03
2.79
2.62
2.34
1.83
1.04
0.00
-1.14
-2.27
-3.28
-4.06
-4.54
-4.61
-4.15
-3.10
-1.48
0.57
2.80
4.92
6.65
7.84
8.45
8.54
8.28
7.82
7.28
6.74
6.17
5.51
4.73
3.82
2.82
1.79
0.79
-0.17
-1.08
-1.96
-2.78
-3.53
-4.22
-4.88
-5.58
-6.38
-7.32
-8.36
-9.45
-10.47
-11.28
-11.74
-11.76
-11.31
-10.47
-9.34
-8.05
-6.66
-5.11
-3.34
-1.34
0.73
2.58
3.92
4.53
4.49
4.04
3.51
3.13
2.99
2.99
3.03
3.04
3.00
2.93
2.78
2.49
2.00
1.35
0.68
0.14
-0.15
-0.26
-0.37
-0.73
-1.51
-2.74
-4.27
-5.88
-7.25
-8.11
-8.28
-7.70
-6.46
-4.73
-2.72
-0.67
1.27
2.98
4.36
5.34
5.84
5.87
5.48
4.84
4.12
3.48
2.99
2.61
2.22
1.70
1.01
0.18
-0.69
-1.45
-1.99
-2.28
-2.32
-2.18
-1.96
-1.77
-1.75
-2.00
-2.57
-3.44
-4.48
-5.49
-6.26
-6.60
-6.37
-5.55
-4.25
-2.69
-1.13
0.22
1.20
1.83
2.17
2.32
2.33
2.18
1.85
1.31
0.66
0.04
-0.35
-0.44
-0.26
0.04
0.20
0.05
-0.49
-1.33
-2.27
-3.15
-3.85
-4.39
-4.83
-5.23
-5.62
-6.00
-6.35
-6.65
-6.98
-7.41
-7.95
-8.51
-8.86
-8.73
-7.93
-6.41
-4.34
-2.03
0.18
1.98
3.23
3.94
4.23
4.27
4.21
4.11
4.04
3.95
3.79
3.47
2.98
2.35
1.67
1.04
0.56
0.20
-0.09
-0.43
-0.86
-1.37
-1.87
-2.25
-2.48
-2.58
-2.68
-2.90
-3.30
-3.84
-4.42
-4.92
-5.28
-5.48
-5.50
-5.27
-4.69
-3.65
-2.18
-0.45
1.28
2.76
3.84
4.55
4.97
5.11
4.95
4.41
3.49
2.39
1.41
0.79
0.64
0.81
1.02
1.00
0.70
0.21
-0.26
-0.59
-0.78
-0.97
-1.35
-1.99
-2.82
-3.67
-4.37
-4.83
-5.09
-5.28
-5.52
-5.88
-6.35
-6.87
-7.35
-7.74
-7.98
-8.01
-7.84
-7.44
-6.81
-5.96
-4.90
-3.65
-2.26
-0.80
0.60
1.77
2.60
3.03
3.08
2.82
2.35
1.74
1.09
0.53
0.17
0.12
0.34
0.74
1.16
1.45
1.57
1.51
1.29
0.91
0.34
-0.46
-1.39
-2.29
-3.00
-3.42
-3.61
-3.75
-4.02
-4.47
-5.06
-5.64
-6.18
-6.74
-7.43
-8.31
-9.20
-9.76
-9.65
-8.68
-6.95
-4.79
-2.61
-0.68
0.92
2.30
3.58
4.84
6.00
6.94
7.53
7.69
7.44
6.86
6.08
5.25
4.43
3.59
2.60
1.30
-0.43
-2.57
-4.90
-7.10
-8.79
-9.67
-9.58
-8.58
-6.90
-4.92
-3.10
-1.78
-1.14
-1.13
-1.54
-2.15
-2.83
-3.59
-4.52
-5.64
-6.86
-7.97
-8.71
-8.86
-8.38
-7.33
-5.86
-4.20
-2.51
-0.92
0.51
1.75
2.85
3.82
4.62
5.21
5.53
5.58
5.41
5.10
4.70
4.24
3.70
3.13
2.60
2.18
1.94
1.82
1.68
1.40
0.90
0.24
-0.45
-1.03
-1.45
-1.76
-2.09
-2.57
-3.24
-4.07
-4.92
-5.67
-6.29
-6.88
-7.58
-8.51
-9.62
-10.67
-11.27
-11.05
-9.89
-7.92
-5.51
-3.09
-0.95
0.79
2.18
3.30
4.19
4.80
5.08
5.06
4.85
4.65
4.64
4.90
5.38
5.93
6.39
6.64
6.64
6.45
6.17
5.89
5.64
5.42
5.13
4.68
4.00
3.12
2.10
1.05
0.06
-0.86
-1.75
-2.70
-3.77
-4.98
-6.34
-7.84
-9.47
-11.19
-12.86
-14.30
-15.23
-15.44
-14.81
-13.39
-11.34
-8.90
-6.27
-3.62
-1.03
1.45
3.77
5.90
7.74
9.13
9.93
10.10
9.74
9.19
8.85
9.04
9.82
10.97
12.03
12.58
12.44
11.70
10.71
9.83
9.25
8.90
8.51
7.82
6.67
5.12
3.39
1.79
0.51
-0.38
-0.94
-1.31
-1.65
-2.08
-2.74
-3.72
-5.07
-6.69
-8.35
-9.70
-10.39
-10.22
-9.15
-7.33
-5.05
-2.59
-0.22
1.87
3.53
4.67
5.24
5.29
4.95
4.36
3.71
3.13
2.70
2.42
2.29
2.27
2.33
2.46
2.61
2.73
2.73
2.55
2.16
1.57
0.85
0.10
-0.64
-1.39
-2.17
-3.05
-4.02
-5.03
-5.99
-6.83
-7.57
-8.39
-9.52
-11.13
-13.19
-15.37
-17.12
-17.84
-17.12
-14.91
-11.52
-7.57
-3.69
-0.36
2.20
4.00
5.15
5.80
6.10
6.17
6.13
6.12
6.18
6.31
6.42
6.39
6.15
5.74
5.29
4.98
4.95
5.23
5.75
6.29
6.62
6.53
5.90
4.71
3.04
1.10
-0.84
-2.47
-3.61
-4.22
-4.51
-4.81
-5.48
-6.72
-8.46
-10.39
-12.03
-12.88
-12.60
-11.14
-8.69
-5.64
-2.42
0.67
3.48
6.04
8.44
10.71
12.69
14.10
14.72
14.50
13.66
12.66
11.98
11.96
12.60
13.64
14.67
15.30
15.37
14.93
14.18
13.38
12.66
12.01
11.30
10.40
9.22
7.82
6.32
4.84
3.41
1.95
0.32
-1.60
-3.80
-6.16
-8.49
-10.65
-12.55
-14.20
-15.59
-16.66
-17.23
-17.10
-16.15
-14.43
-12.16
-9.69
-7.36
-5.37
-3.80
-2.63
-1.77
-1.15
-0.68
-0.31
0.06
0.53
1.18
2.05
3.13
4.34
5.57
6.71
7.66
8.37
8.84
9.13
9.32
9.43
9.39
9.05
8.28
7.03
5.39
3.56
1.72
-0.04
-1.75
-3.55
-5.57
-7.87
-10.37
-12.91
-15.25
-17.16
-18.41
-18.84
-18.37
-16.99
-14.77
-11.89
-8.61
-5.17
-1.82
1.26
3.95
6.15
7.82
8.95
9.58
9.82
9.83
9.81
9.88
10.08
10.33
10.45
10.29
9.74
8.85
7.74
6.57
5.49
4.58
3.87
3.28
2.68
1.89
0.75
-0.83
-2.84
-5.15
-7.58
-9.99
-12.41
-14.99
-17.96
-21.48
-25.47
-29.63
-33.46
-36.43
-38.09
-38.18
-36.59
-33.35
-28.61
-22.64
-15.84
-8.67
-1.59
5.04
11.01
16.24
20.68
24.29
27.02
28.79
29.65
29.74
29.30
28.63
27.95
27.40
26.99
26.63
26.21
25.63
24.82
23.83
22.70
21.51
20.26
18.93
17.44
15.75
13.83
11.70
9.47
7.25
5.20
3.44
2.00
0.77
-0.46
-1.99
-4.06
-6.75
-9.93
-13.24
-16.16
-18.18
-18.93
-18.28
-16.43
-13.78
-10.83
-7.98
-5.43
-3.20
-1.18
0.70
2.40
3.80
4.77
5.22
5.22
4.94
4.57
4.36
4.46
4.93
5.72
6.70
7.65
8.39
8.80
8.88
8.65
8.16
7.38
6.30
4.94
3.41
1.86
0.43
-0.86
-2.11
-3.45
-5.02
-6.84
-8.84
-10.91
-12.87
-14.56
-15.84
-16.55
-16.56
-15.79
-14.25
-12.00
-9.24
-6.18
-3.07
-0.18
2.29
4.24
5.68
6.73
7.49
8.01
8.27
8.28
8.13
8.01
8.14
8.63
9.43
10.28
10.93
11.24
11.24
11.12
11.05
11.05
10.94
10.46
9.43
7.88
6.05
4.28
2.83
1.80
1.09
0.49
-0.23
-1.21
-2.53
-4.22
-6.24
-8.49
-10.75
-12.72
-14.04
-14.39
-13.62
-11.78
-9.16
-6.13
-3.11
-0.49
1.49
2.74
3.31
3.36
3.04
2.51
1.87
1.19
0.56
0.10
-0.01
0.33
1.10
2.15
3.24
4.12
4.66
4.84
4.69
4.26
3.56
2.63
1.52
0.35
-0.76
-1.78
-2.72
-3.70
-4.77
-5.94
-7.13
-8.31
-9.50
-10.85
-12.51
-14.55
-16.82
-19.01
-20.74
-21.61
-21.35
-19.87
-17.26
-13.80
-9.88
-5.91
-2.20
1.05
3.81
6.14
8.12
9.76
10.98
11.66
11.78
11.43
10.87
10.39
10.23
10.42
10.82
11.17
11.24
10.96
10.40
9.71
8.96
8.13
7.10
5.72
3.97
1.98
0.01
-1.71
-2.98
-3.78
-4.26
-4.65
-5.25
-6.28
-7.87
-10.02
-12.52
-15.02
-17.07
-18.26
-18.31
-17.20
-15.10
-12.36
-9.36
-6.33
-3.44
-0.72
1.82
4.10
6.05
7.55
8.53
9.00
9.07
8.91
8.73
8.70
8.88
9.22
9.58
9.81
9.85
9.71
9.46
9.16
8.75
8.12
7.15
5.78
4.13
2.38
0.79
-0.50
-1.46
-2.20
-2.86
-3.57
-4.42
-5.48
-6.79
-8.38
-10.26
-12.30
-14.21
-15.58
-16.00
-15.19
-13.20
-10.33
-7.04
-3.77
-0.81
1.77
3.94
5.71
7.01
7.74
7.90
7.62
7.17
6.88
6.98
7.52
8.34
9.14
9.62
9.64
9.25
8.65
8.11
7.78
7.64
7.46
6.97
5.96
4.44
2.61
0.77
-0.82
-2.02
-2.90
-3.61
-4.38
-5.44
-6.95
-9.02
-11.63
-14.55
-17.41
-19.65
-20.74
-20.36
-18.50
-15.51
-11.89
-8.18
-4.72
-1.69
0.89
2.98
4.52
5.45
5.79
5.67
5.36
5.11
5.16
5.56
6.26
7.09
7.90
8.55
8.94
9.08
9.03
8.92
8.88
8.94
8.99
8.81
8.15
6.85
5.00
2.87
0.86
-0.71
-1.78
-2.51
-3.25
-4.33
-5.94
-8.02
-10.37
-12.76
-14.97
-16.84
-18.19
-18.78
-18.37
-16.79
-14.12
-10.68
-6.97
-3.48
-0.49
2.02
4.26
6.45
8.61
10.57
12.00
12.71
12.77
12.47
12.25
12.39
12.92
13.62
14.18
14.38
14.21
13.82
13.40
13.05
12.74
12.28
11.53
10.41
8.96
7.35
5.74
4.24
2.87
1.57
0.25
-1.17
-2.75
-4.48
-6.36
-8.36
-10.45
-12.52
-14.45
-15.98
-16.82
-16.67
-15.37
-12.95
-9.67
-5.98
-2.35
0.88
3.58
5.81
7.72
9.37
10.73
11.69
12.22
12.38
12.39
12.45
12.67
13.00
13.25
13.30
13.11
12.77
12.38
11.98
11.49
10.72
9.55
7.98
6.18
4.35
2.63
1.06
-0.39
-1.73
-2.92
-3.90
-4.75
-5.65
-6.87
-8.62
-10.88
-13.35
-15.52
-16.86
-16.98
-15.79
-13.42
-10.20
-6.50
-2.64
1.14
4.69
7.95
10.89
13.51
15.77
17.61
18.94
19.65
19.71
19.21
18.31
17.21
16.07
14.92
13.66
12.16
10.32
8.18
5.90
3.63
1.47
-0.56
-2.52
-4.44
-6.25
-7.79
-8.92
-9.58
-9.83
-9.78
-9.55
-9.15
-8.53
-7.70
-6.76
-6.02
-5.83
-6.46
-7.86
-9.68
-11.39
-12.48
-12.72
-12.19
-11.24
-10.23
-9.43
-8.93
-8.69
-8.65
-8.78
-9.13
-9.73
-10.56
-11.50
-12.36
-12.90
-12.89
-12.18
-10.75
-8.72
-6.33
-3.86
-1.51
0.62
2.55
4.34
5.99
7.43
8.52
9.14
9.23
8.87
8.20
7.37
6.47
5.51
4.48
3.37
2.22
1.06
-0.17
-1.57
-3.30
-5.43
-7.93
-10.57
-13.05
-14.96
-15.96
-15.78
-14.30
-11.60
-8.01
-3.99
-0.06
3.37
6.11
8.16
9.63
10.63
11.20
11.39
11.28
11.01
10.75
10.59
10.56
10.56
10.52
10.42
10.28
10.15
10.07
10.01
9.87
9.55
8.91
7.90
6.50
4.86
3.17
1.62
0.33
-0.73
-1.68
-2.66
-3.76
-5.03
-6.46
-8.15
-10.16
-12.54
-15.11
-17.53
-19.28
-19.91
-19.16
-17.05
-13.86
-10.06
-6.11
-2.40
0.81
3.40
5.39
6.83
7.80
8.41
8.72
8.79
8.68
8.49
8.31
8.24
8.32
8.53
8.81
9.05
9.17
9.10
8.85
8.46
7.97
7.41
6.77
6.00
5.06
3.88
2.45
0.81
-0.97
-2.78
-4.51
-6.14
-7.70
-9.29
-11.01
-12.91
-15.02
-17.28
-19.58
-21.70
-23.34
-24.12
-23.76
-22.12
-19.36
-15.87
-12.15
-8.63
-5.56
-2.99
-0.92
0.62
1.60
1.98
1.87
1.49
1.15
1.08
1.38
1.98
2.71
3.39
3.89
4.16
4.21
4.05
3.72
3.26
2.73
2.21
1.70
1.15
0.43
-0.55
-1.80
-3.20
-4.57
-5.75
-6.68
-7.47
-8.30
-9.34
-10.68
-12.25
-13.92
-15.53
-16.88
-17.77
-18.00
-17.36
-15.73
-13.14
-9.82
-6.14
-2.54
0.61
3.14
5.06
6.59
7.96
9.37
10.86
12.35
13.68
14.74
15.50
16.03
16.49
16.97
17.51
18.01
18.34
18.37
18.03
17.35
16.44
15.45
14.51
13.66
12.85
11.97
10.91
9.61
8.14
6.65
5.30
4.23
3.47
2.89
2.22
1.16
-0.51
-2.81
-5.49
-8.04
-9.85
-10.42
-9.53
-7.36
-4.36
-1.10
1.95
4.55
6.67
8.37
9.72
10.73
11.40
11.75
11.88
11.91
11.96
12.05
12.10
12.04
11.77
11.30
10.73
10.18
9.73
9.41
9.13
8.77
8.23
7.41
6.32
5.02
3.64
2.28
1.00
-0.23
-1.46
-2.78
-4.23
-5.86
-7.70
-9.81
-12.20
-14.77
-17.33
-19.55
-21.05
-21.55
-20.91
-19.20
-16.67
-13.64
-10.48
-7.48
-4.86
-2.76
-1.20
-0.14
0.52
0.88
1.03
1.06
1.06
1.15
1.39
1.79
2.22
2.48
2.42
1.98
1.26
0.43
-0.34
-1.01
-1.68
-2.44
-3.37
-4.42
-5.46
-6.36
-7.10
-7.76
-8.47
-9.38
-10.52
-11.89
-13.43
-15.06
-16.64
-17.99
-18.85
-18.94
-18.03
-16.01
-12.96
-9.16
-5.00
-0.90
2.82
5.97
8.53
10.52
11.99
12.93
13.31
13.13
12.48
11.54
10.56
9.71
9.05
8.51
7.97
7.37
6.74
6.17
5.67
5.19
4.58
3.74
2.64
1.38
0.12
-0.99
-1.91
-2.73
-3.55
-4.43
-5.40
-6.40
-7.43
-8.52
-9.73
-11.11
-12.57
-13.86
-14.65
-14.63
-13.66
-11.84
-9.45
-6.82
-4.23
-1.79
0.46
2.54
4.43
6.11
7.51
8.60
9.39
9.91
10.20
10.30
10.31
10.33
10.45
10.72
11.12
11.54
11.88
12.04
11.94
11.56
10.84
9.79
8.43
6.88
5.28
3.75
2.37
1.07
-0.25
-1.75
-3.57
-5.76
-8.30
-11.03
-13.67
-15.89
-17.38
-17.90
-17.39
-15.93
-13.69
-10.95
-7.96
-4.93
-2.03
0.64
3.01
5.06
6.79
8.21
9.32
10.11
10.62
10.90
11.06
11.17
11.29
11.35
11.26
10.91
10.31
9.52
8.74
8.11
7.70
7.40
7.04
6.40
5.39
4.08
2.63
1.23
-0.04
-1.23
-2.48
-3.93
-5.66
-7.66
-9.84
-12.10
-14.29
-16.16
-17.43
-17.79
-16.99
-15.00
-12.04
-8.49
-4.82
-1.40
1.55
4.00
6.02
7.68
9.02
10.01
10.67
11.05
11.27
11.47
11.74
12.10
12.47
12.75
12.82
12.66
12.28
11.77
11.18
10.52
9.77
8.86
7.76
6.47
5.04
3.56
2.10
0.72
-0.65
-2.10
-3.75
-5.73
-8.05
-10.66
-13.38
-15.97
-18.12
-19.57
-20.12
-19.69
-18.36
-16.30
-13.72
-10.82
-7.76
-4.70
-1.77
0.87
3.11
4.83
6.02
6.70
6.92
6.73
6.22
5.50
4.77
4.26
4.15
4.53
5.28
6.18
6.93
7.31
7.22
6.70
5.92
5.03
4.17
3.36
2.61
1.85
1.08
0.28
-0.56
-1.51
-2.71
-4.30
-6.43
-9.08
-12.06
-14.97
-17.35
-18.79
-19.04
-18.13
-16.27
-13.80
-11.01
-8.12
-5.21
-2.35
0.35
2.69
4.46
5.49
5.84
5.73
5.53
5.57
6.03
6.89
8.00
9.12
10.06
10.70
10.99
10.91
10.52
9.87
9.03
8.05
6.96
5.80
4.60
3.42
2.35
1.44
0.66
-0.10
-0.99
-2.11
-3.49
-5.08
-6.84
-8.71
-10.69
-12.65
-14.35
-15.45
-15.59
-14.56
-12.46
-9.65
-6.61
-3.76
-1.29
0.82
2.72
4.51
6.18
7.57
8.51
8.89
8.73
8.23
7.67
7.29
7.27
7.61
8.19
8.76
9.09
9.01
8.51
7.70
6.76
5.82
4.97
4.19
3.40
2.54
1.57
0.51
-0.62
-1.78
-2.96
-4.13
-5.31
-6.51
-7.77
-9.13
-10.63
-12.25
-13.89
-15.32
-16.27
-16.41
-15.49
-13.48
-10.54
-7.08
-3.59
-0.51
1.89
3.56
4.64
5.29
5.63
5.70
5.48
5.01
4.45
4.02
3.95
4.35
5.12
5.97
6.54
6.56
6.01
5.10
4.17
3.54
3.37
3.54
3.81
3.89
3.60
2.94
2.02
0.98
-0.09
-1.18
-2.33
-3.54
-4.79
-6.05
-7.33
-8.70
-10.22
-11.86
-13.43
-14.61
-15.02
-14.41
-12.76
-10.27
-7.34
-4.38
-1.67
0.68
2.66
4.34
5.68
6.59
6.94
6.72
6.08
5.30
4.72
4.54
4.79
5.29
5.81
6.19
6.40
6.52
6.66
6.85
7.00
7.00
6.73
6.11
5.14
3.85
2.34
0.75
-0.74
-1.97
-2.84
-3.44
-3.97
-4.70
-5.87
-7.55
-9.66
-11.99
-14.25
-16.14
-17.40
-17.79
-17.14
-15.38
-12.58
-9.01
-5.04
-1.09
2.51
5.55
7.95
9.69
10.74
11.11
10.88
10.23
9.41
8.72
8.33
8.30
8.49
8.72
8.83
8.74
8.50
8.18
7.92
7.76
7.68
7.58
7.30
6.69
5.68
4.34
2.86
1.52
0.49
-0.23
-0.80
-1.49
-2.50
-3.88
-5.54
-7.31
-9.03
-10.57
-11.81
-12.55
-12.61
-11.82
-10.23
-8.05
-5.64
-3.36
-1.43
0.10
1.25
2.05
2.52
2.64
2.44
2.00
1.46
0.92
0.47
0.14
-0.08
-0.19
-0.22
-0.19
-0.13
-0.08
-0.04
-0.02
-0.07
-0.27
-0.75
-1.56
-2.70
-4.01
-5.33
-6.47
-7.36
-8.03
-8.59
-9.16
-9.86
-10.79
-12.00
-13.49
-15.20
-16.93
-18.40
-19.32
-19.39
-18.50
-16.69
-14.12
-11.10
-7.91
-4.77
-1.84
0.81
3.12
5.02
6.43
7.30
7.63
7.56
7.26
6.92
6.69
6.63
6.69
6.82
6.92
6.97
7.02
7.15
7.48
8.02
8.71
9.37
9.75
9.68
9.09
8.09
6.86
5.58
4.37
3.24
2.07
0.72
-0.93
-2.96
-5.30
-7.82
-10.24
-12.27
-13.64
-14.16
-13.80
-12.64
-10.87
-8.70
-6.29
-3.82
-1.44
0.67
2.36
3.56
4.27
4.65
4.88
5.12
5.43
5.74
5.96
6.00
5.96
5.97
6.22
6.76
7.50
8.26
8.85
9.17
9.23
9.08
8.78
8.28
7.57
6.61
5.49
4.33
3.30
2.47
1.87
1.40
0.94
0.35
-0.51
-1.71
-3.30
-5.21
-7.29
-9.22
-10.64
-11.24
-10.83
-9.43
-7.27
-4.73
-2.19
0.04
1.81
3.05
3.81
4.15
4.11
3.77
3.22
2.60
2.03
1.65
1.52
1.61
1.87
2.20
2.51
2.75
2.91
2.97
2.91
2.70
2.29
1.65
0.79
-0.22
-1.30
-2.35
-3.32
-4.19
-5.04
-5.93
-7.02
-8.38
-10.07
-11.99
-13.89
-15.45
-16.31
-16.18
-15.00
-12.91
-10.22
-7.28
-4.35
-1.61
0.91
3.14
5.01
6.39
7.17
7.37
7.09
6.55
5.99
5.59
5.46
5.58
5.86
6.20
6.47
6.66
6.77
6.84
6.89
6.85
6.60
6.00
5.00
3.73
2.42
1.37
0.72
0.43
0.28
0.02
-0.55
-1.53
-2.87
-4.52
-6.39
-8.36
-10.27
-11.83
-12.74
-12.72
-11.69
-9.76
-7.24
-4.51
-1.87
0.44
2.36
3.88
5.05
5.93
6.52
6.84
6.90
6.75
6.51
6.32
6.30
6.50
6.85
7.21
7.43
7.47
7.35
7.12
6.80
6.35
5.70
4.79
3.64
2.31
0.92
-0.42
-1.60
-2.58
-3.32
-3.84
-4.25
-4.68
-5.33
-6.36
-7.85
-9.76
-11.91
-13.97
-15.59
-16.43
-16.27
-15.06
-12.93
-10.12
-6.90
-3.56
-0.39
2.36
4.49
5.95
6.78
7.18
7.32
7.32
7.22
6.98
6.57
6.07
5.60
5.38
5.53
6.03
6.69
7.23
7.42
7.15
6.52
5.75
5.08
4.61
4.24
3.73
2.85
1.51
-0.18
-1.94
-3.51
-4.73
-5.61
-6.29
-6.97
-7.78
-8.81
-10.06
-11.44
-12.84
-14.09
-14.96
-15.23
-14.70
-13.21
-10.75
-7.47
-3.72
0.04
3.38
6.01
7.89
9.19
10.15
10.96
11.66
12.20
12.50
12.58
12.55
12.54
12.62
12.71
12.66
12.32
11.63
10.64
9.52
8.44
7.54
6.80
6.13
5.35
4.33
2.99
1.44
-0.15
-1.57
-2.73
-3.69
-4.63
-5.73
-7.08
-8.65
-10.29
-11.89
-13.43
-14.98
-16.57
-18.12
-19.38
-19.97
-19.57
-18.07
-15.60
-12.52
-9.23
-6.06
-3.17
-0.57
1.75
3.81
5.54
6.83
7.61
7.89
7.79
7.51
7.22
7.08
7.13
7.35
7.69
8.06
8.39
8.61
8.70
8.63
8.40
8.01
7.49
6.86
6.16
5.43
4.66
3.82
2.89
1.83
0.68
-0.49
-1.60
-2.58
-3.41
-4.20
-5.13
-6.44
-8.21
-10.39
-12.65
-14.50
-15.45
-15.14
-13.54
-10.95
-7.86
-4.78
-2.06
0.15
1.88
3.26
4.36
5.20
5.74
5.98
5.97
5.82
5.68
5.62
5.65
5.70
5.64
5.43
5.07
4.67
4.34
4.15
4.06
3.96
3.76
3.38
2.86
2.21
1.48
0.70
-0.13
-0.96
-1.74
-2.39
-2.94
-3.46
-4.10
-5.01
-6.23
-7.74
-9.39
-10.98
-12.27
-13.04
-13.05
-12.18
-10.45
-8.05
-5.33
-2.59
-0.04
2.30
4.47
6.55
8.49
10.18
11.43
12.15
12.35
12.15
11.76
11.33
10.97
10.69
10.47
10.29
10.09
9.85
9.54
9.13
8.60
7.98
7.26
6.48
5.68
4.85
4.01
3.16
2.29
1.41
0.52
-0.38
-1.29
-2.21
-3.12
-4.02
-4.92
-5.84
-6.83
-7.94
-9.17
-10.42
-11.51
-12.13
-11.99
-10.95
-9.09
-6.67
-4.14
-1.86
-0.01
1.45
2.73
4.02
5.36
6.62
7.60
8.18
8.38
8.38
8.40
8.61
9.01
9.51
9.98
10.32
10.51
10.57
10.51
10.24
9.64
8.63
7.19
5.47
3.71
2.13
0.84
-0.23
-1.30
-2.59
-4.23
-6.15
-8.12
-9.89
-11.29
-12.31
-13.11
-13.89
-14.80
-15.92
-17.19
-18.47
-19.56
-20.19
-20.12
-19.13
-17.16
-14.33
-10.99
-7.57
-4.46
-1.90
0.08
1.59
2.80
3.76
4.47
4.89
5.02
4.97
4.90
5.00
5.34
5.87
6.43
6.88
7.12
7.16
7.10
7.03
7.02
7.02
6.90
6.50
5.68
4.43
2.85
1.17
-0.36
-1.59
-2.51
-3.27
-4.08
-5.09
-6.32
-7.61
-8.80
-9.82
-10.75
-11.72
-12.81
-13.90
-14.67
-14.74
-13.85
-11.97
-9.38
-6.49
-3.71
-1.27
0.76
2.46
3.88
5.00
5.71
5.89
5.57
4.89
4.14
3.61
3.47
3.68
4.01
4.23
4.17
3.81
3.31
2.83
2.48
2.23
1.95
1.53
0.89
0.11
-0.71
-1.44
-2.05
-2.61
-3.23
-3.98
-4.91
-5.96
-7.13
-8.39
-9.77
-11.24
-12.64
-13.70
-14.11
-13.69
-12.44
-10.56
-8.36
-6.12
-3.99
-2.01
-0.19
1.44
2.75
3.61
3.92
3.71
3.17
2.58
2.21
2.23
2.67
3.41
4.25
5.00
5.52
5.79
5.88
5.83
5.67
5.37
4.90
4.30
3.64
3.03
2.54
2.11
1.65
1.07
0.37
-0.39
-1.14
-1.87
-2.69
-3.73
-5.08
-6.65
-8.13
-9.12
-9.23
-8.28
-6.35
-3.77
-0.98
1.60
3.72
5.33
6.54
7.46
8.19
8.65
8.73
8.36
7.61
6.71
5.96
5.58
5.60
5.87
6.15
6.26
6.16
5.93
5.69
5.45
5.14
4.63
3.81
2.71
1.46
0.25
-0.75
-1.49
-2.02
-2.47
-3.00
-3.76
-4.85
-6.28
-8.00
-9.89
-11.83
-13.71
-15.39
-16.70
-17.44
-17.43
-16.58
-14.94
-12.69
-10.09
-7.39
-4.76
-2.32
-0.09
1.86
3.44
4.53
5.06
5.06
4.69
4.18
3.73
3.46
3.37
3.33
3.20
2.91
2.45
1.92
1.42
0.99
0.55
-0.01
-0.81
-1.89
-3.18
-4.58
-5.97
-7.26
-8.41
-9.38
-10.14
-10.65
-10.96
-11.16
-11.38
-11.74
-12.26
-12.81
-13.15
-13.02
-12.17
-10.51
-8.07
-5.07
-1.81
1.35
4.14
6.39
8.07
9.24
9.96
10.27
10.21
9.82
9.20
8.55
8.03
7.78
7.84
8.15
8.62
9.16
9.73
10.30
10.82
11.21
11.36
11.17
10.62
9.77
8.77
7.76
6.85
6.06
5.36
4.72
4.10
3.47
2.79
1.99
0.94
-0.39
-1.99
-3.69
-5.26
-6.47
-7.11
-7.09
-6.35
-4.89
-2.75
-0.10
2.86
5.83
8.56
10.84
12.63
13.92
14.79
15.30
15.45
15.27
14.76
14.00
13.09
12.19
11.40
10.75
10.20
9.65
9.00
8.23
7.42
6.71
6.18
5.82
5.41
4.74
3.63
2.10
0.40
-1.19
-2.46
-3.37
-4.12
-4.97
-6.14
-7.70
-9.53
-11.34
-12.81
-13.65
-13.67
-12.86
-11.35
-9.38
-7.26
-5.22
-3.36
-1.69
-0.10
1.48
3.07
4.55
5.79
6.66
7.16
7.39
7.51
7.65
7.81
7.93
7.88
7.58
7.06
6.43
5.85
5.40
5.08
4.77
4.37
3.81
3.13
2.39
1.61
0.76
-0.29
-1.65
-3.39
-5.44
-7.67
-9.86
-11.82
-13.35
-14.30
-14.59
-14.18
-13.12
-11.49
-9.45
-7.14
-4.73
-2.36
-0.17
1.80
3.51
5.00
6.28
7.35
8.16
8.71
8.98
9.04
8.99
8.89
8.76
8.60
8.36
8.06
7.74
7.45
7.17
6.86
6.42
5.78
4.89
3.75
2.43
1.01
-0.43
-1.84
-3.21
-4.56
-5.95
-7.40
-8.95
-10.54
-12.11
-13.48
-14.41
-14.65
-14.03
-12.50
-10.23
-7.50
-4.64
-1.89
0.62
2.94
5.12
7.20
9.10
10.68
11.87
12.62
12.99
13.05
12.87
12.47
11.90
11.25
10.66
10.25
10.10
10.10
10.08
9.77
8.99
7.66
5.84
3.69
1.48
-0.54
-2.12
-3.11
-3.54
-3.58
-3.57
-3.89
-4.79
-6.28
-8.14
-9.92
-11.13
-11.42
-10.66
-9.00
-6.77
-4.37
-2.05
0.06
1.97
3.78
5.52
7.15
8.53
9.56
10.14
10.33
10.24
10.07
9.94
9.92
9.98
10.01
9.91
9.59
9.08
8.45
7.78
7.09
6.35
5.43
4.20
2.58
0.59
-1.63
-3.86
-5.87
-7.49
-8.71
-9.65
-10.58
-11.76
-13.39
-15.42
-17.67
-19.77
-21.30
-21.95
-21.54
-20.07
-17.74
-14.85
-11.78
-8.82
-6.15
-3.80
-1.70
0.17
1.76
2.96
3.68
3.96
4.01
4.09
4.41
5.07
5.98
6.98
7.91
8.67
9.17
9.38
9.28
8.92
8.38
7.72
6.95
6.02
4.88
3.50
1.93
0.30
-1.31
-2.89
-4.50
-6.20
-8.01
-9.84
-11.56
-12.98
-13.93
-14.28
-13.92
-12.83
-11.12
-9.01
-6.73
-4.50
-2.39
-0.42
1.47
3.24
4.79
5.97
6.67
6.93
6.92
6.83
6.82
6.96
7.13
7.21
7.09
6.75
6.31
5.88
5.57
5.35
5.09
4.58
3.66
2.28
0.58
-1.21
-2.82
-4.06
-4.93
-5.54
-6.11
-6.83
-7.83
-9.12
-10.59
-12.08
-13.34
-14.13
-14.19
-13.38
-11.71
-9.37
-6.68
-3.93
-1.34
1.05
3.28
5.38
7.28
8.81
9.82
10.26
10.28
10.17
10.16
10.33
10.58
10.67
10.43
9.86
9.14
8.51
8.09
7.84
7.60
7.15
6.39
5.34
4.11
2.82
1.53
0.26
-0.98
-2.21
-3.43
-4.66
-5.94
-7.32
-8.90
-10.69
-12.66
-14.63
-16.31
-17.35
-17.42
-16.33
-14.10
-11.02
-7.55
-4.18
-1.26
1.05
2.83
4.30
5.66
7.01
8.29
9.34
9.97
10.16
10.01
9.80
9.76
10.04
10.56
11.09
11.38
11.22
10.60
9.63
8.49
7.33
6.21
5.11
3.96
2.75
1.49
0.28
-0.76
-1.53
-2.08
-2.57
-3.28
-4.48
-6.30
-8.68
-11.34
-13.84
-15.77
-16.83
-16.84
-15.85
-13.97
-11.43
-8.52
-5.53
-2.71
-0.27
1.72
3.25
4.39
5.23
5.81
6.20
6.42
6.51
6.47
6.28
5.87
5.21
4.34
3.43
2.71
2.38
2.47
2.83
3.14
3.08
2.51
1.48
0.20
-1.09
-2.24
-3.22
-4.05
-4.81
-5.53
-6.27
-7.12
-8.17
-9.48
-10.98
-12.49
-13.69
-14.26
-13.98
-12.84
-10.97
-8.67
-6.29
-4.07
-2.17
-0.58
0.84
2.21
3.55
4.82
5.86
6.59
6.98
7.11
7.08
6.97
6.81
6.65
6.52
6.50
6.61
6.81
6.98
7.02
6.82
6.36
5.71
4.91
4.01
3.00
1.87
0.66
-0.57
-1.73
-2.81
-3.84
-4.98
-6.39
-8.19
-10.38
-12.79
-15.06
-16.80
-17.63
-17.41
-16.15
-14.05
-11.43
-8.58
-5.78
-3.20
-0.96
0.93
2.49
3.75
4.77
5.50
5.92
6.03
5.89
5.67
5.56
5.66
5.92
6.17
6.19
5.85
5.20
4.45
3.87
3.61
3.65
3.75
3.61
3.04
2.08
0.96
0.03
-0.51
-0.68
-0.74
-1.05
-1.82
-3.08
-4.65
-6.25
-7.66
-8.70
-9.25
-9.20
-8.41
-6.83
-4.55
-1.84
0.89
3.22
4.88
5.78
6.08
6.07
6.04
6.26
6.80
7.58
8.36
8.85
8.86
8.29
7.26
5.92
4.47
3.06
1.82
0.82
0.08
-0.45
-0.93
-1.55
-2.46
-3.66
-4.99
-6.18
-6.93
-7.02
-6.40
-5.15
-3.54
-1.97
-0.92
-0.74
-1.56
-3.11
-4.83
-6.09
-6.49
-5.99
-4.87
-3.51
-2.18
-0.94
0.26
1.47
2.61
3.53
4.12
4.44
4.67
5.04
5.67
6.46
7.21
7.65
7.66
7.28
6.73
6.29
6.20
6.50
7.03
7.49
7.53
6.93
5.69
3.97
2.00
-0.02
-1.95
-3.72
-5.26
-6.49
-7.39
-8.07
-8.76
-9.70
-11.04
-12.65
-14.15
-15.03
-14.88
-13.59
-11.36
-8.57
-5.65
-2.89
-0.42
1.72
3.53
4.97
6.03
6.74
7.18
7.43
7.55
7.55
7.41
7.18
6.93
6.76
6.75
6.85
6.93
6.78
6.28
5.38
4.20
2.90
1.67
0.60
-0.28
-1.04
-1.76
-2.54
-3.44
-4.50
-5.73
-7.17
-8.84
-10.72
-12.70
-14.55
-15.97
-16.63
-16.32
-15.03
-12.93
-10.34
-7.62
-5.03
-2.68
-0.60
1.23
2.81
4.06
4.93
5.42
5.61
5.65
5.67
5.77
6.01
6.39
6.87
7.42
7.92
8.25
8.27
7.92
7.26
6.40
5.51
4.68
3.96
3.29
2.59
1.79
0.82
-0.37
-1.83
-3.58
-5.56
-7.63
-9.56
-11.12
-12.11
-12.39
-11.89
-10.61
-8.64
-6.15
-3.42
-0.80
1.45
3.20
4.57
5.76
7.02
8.40
9.78
10.88
11.43
11.30
10.56
9.48
8.36
7.47
6.88
6.53
6.32
6.14
5.93
5.65
5.27
4.74
4.03
3.15
2.17
1.13
0.06
-1.07
-2.40
-4.03
-6.04
-8.35
-10.75
-12.93
-14.52
-15.24
-14.91
-13.54
-11.32
-8.58
-5.72
-3.10
-0.94
0.75
2.05
3.12
4.01
4.73
5.15
5.22
5.00
4.68
4.51
4.68
5.22
6.01
6.82
7.40
7.59
7.36
6.75
5.87
4.82
3.71
2.61
1.52
0.39
-0.85
-2.29
-3.97
-5.88
-7.97
-10.09
-12.03
-13.52
-14.30
-14.18
-13.16
-11.40
-9.21
-6.87
-4.59
-2.45
-0.49
1.19
2.48
3.22
3.39
3.12
2.68
2.34
2.25
2.43
2.80
3.22
3.58
3.81
3.84
3.64
3.15
2.40
1.49
0.54
-0.36
-1.20
-2.14
-3.37
-5.07
-7.31
-10.00
-12.91
-15.73
-18.12
-19.80
-20.58
-20.35
-19.11
-16.99
-14.25
-11.23
-8.20
-5.35
-2.73
-0.38
1.69
3.41
4.71
5.59
6.16
6.60
7.14
7.92
8.93
10.06
11.12
11.91
12.25
12.07
11.35
10.21
8.82
7.36
5.96
4.65
3.39
2.10
0.75
-0.65
-2.08
-3.49
-4.83
-6.00
-6.77
-6.90
-6.13
-4.33
-1.62
1.69
5.20
8.50
11.33
13.55
15.13
16.07
16.43
16.29
15.81
15.13
14.40
13.69
13.01
12.35
11.72
11.14
10.66
10.29
9.97
9.64
9.20
8.61
7.84
6.87
5.65
4.12
2.28
0.17
-2.12
-4.45
-6.65
-8.56
-9.98
-10.74
-10.70
-9.86
-8.33
-6.37
-4.27
-2.27
-0.50
1.00
2.24
3.16
3.72
3.87
3.66
3.21
2.69
2.18
1.68
1.13
0.48
-0.19
-0.71
-0.91
-0.75
-0.39
-0.11
-0.19
-0.73
-1.65
-2.74
-3.82
-4.84
-5.91
-7.17
-8.66
-10.29
-11.82
-12.94
-13.40
-13.07
-11.95
-10.12
-7.74
-4.99
-2.09
0.77
3.41
5.71
7.58
8.97
9.84
10.20
10.07
9.55
8.79
7.99
7.28
6.78
6.49
6.36
6.26
6.08
5.72
5.18
4.51
3.78
3.04
2.31
1.56
0.76
-0.13
-1.11
-2.24
-3.61
-5.30
-7.34
-9.57
-11.66
-13.16
-13.71
-13.14
-11.59
-9.40
-6.94
-4.51
-2.23
-0.12
1.80
3.46
4.76
5.64
6.11
6.30
6.39
6.50
6.65
6.78
6.78
6.65
6.41
6.11
5.78
5.32
4.64
3.62
2.25
0.66
-0.99
-2.49
-3.73
-4.73
-5.62
-6.60
-7.85
-9.45
-11.38
-13.45
-15.42
-17.02
-18.03
-18.30
-17.81
-16.59
-14.79
-12.61
-10.27
-8.03
-6.11
-4.67
-3.77
-3.35
-3.27
-3.30
-3.23
-2.87
-2.12
-0.95
0.65
2.60
4.78
7.03
9.18
11.05
12.57
13.72
14.57
15.16
15.52
15.61
15.40
14.86
14.02
12.94
11.66
10.15
8.36
6.20
3.60
0.61
-2.62
-5.81
-8.62
-10.69
-11.74
-11.62
-10.32
-7.99
-4.87
-1.32
2.25
5.44
7.94
9.62
10.54
10.84
10.70
10.28
9.70
9.09
8.62
8.43
8.65
9.22
9.95
10.52
10.67
10.25
9.33
8.11
6.81
5.62
4.59
3.63
2.59
1.40
0.06
-1.28
-2.48
-3.43
-4.14
-4.77
-5.51
-6.51
-7.81
-9.29
-10.76
-11.96
-12.69
-12.84
-12.37
-11.36
-9.91
-8.19
-6.30
-4.34
-2.38
-0.48
1.36
3.13
4.84
6.49
7.99
9.19
9.93
10.11
9.79
9.20
8.62
8.33
8.44
8.84
9.28
9.49
9.29
8.70
7.86
7.02
6.35
5.88
5.54
5.15
4.58
3.76
2.71
1.49
0.15
-1.25
-2.71
-4.18
-5.60
-6.90
-8.04
-9.03
-9.93
-10.82
-11.72
-12.50
-12.94
-12.75
-11.72
-9.79
-7.07
-3.91
-0.67
2.28
4.75
6.70
8.20
9.40
10.38
11.18
11.77
12.07
12.04
11.72
11.17
10.53
9.94
9.51
9.28
9.22
9.25
9.27
9.19
8.90
8.36
7.52
6.39
5.04
3.56
2.06
0.60
-0.78
-2.06
-3.24
-4.27
-5.17
-5.93
-6.65
-7.40
-8.27
-9.30
-10.49
-11.81
-13.22
-14.62
-15.86
-16.71
-16.91
-16.34
-14.98
-13.05
-10.87
-8.81
-7.11
-5.84
-4.92
-4.19
-3.50
-2.83
-2.22
-1.73
-1.37
-1.07
-0.71
-0.19
0.52
1.32
2.07
2.66
3.04
3.24
3.35
3.45
3.54
3.56
3.44
3.10
2.49
1.65
0.66
-0.37
-1.36
-2.23
-3.02
-3.76
-4.52
-5.37
-6.35
-7.42
-8.55
-9.72
-10.87
-11.98
-12.93
-13.58
-13.69
-13.08
-11.69
-9.58
-6.98
-4.17
-1.40
1.18
3.44
5.30
6.68
7.50
7.79
7.70
7.45
7.31
7.41
7.72
8.09
8.35
8.44
8.43
8.47
8.69
9.10
9.58
9.98
10.16
10.07
9.79
9.36
8.87
8.33
7.79
7.28
6.86
6.53
6.19
5.66
4.78
3.49
1.89
0.17
-1.52
-3.10
-4.67
-6.41
-8.47
-10.90
-13.61
-16.43
-19.14
-21.56
-23.51
-24.87
-25.56
-25.56
-24.91
-23.77
-22.32
-20.78
-19.32
-18.02
-16.85
-15.68
-14.35
-12.76
-10.83
-8.61
-6.19
-3.67
-1.16
1.27
3.51
5.50
7.13
8.37
9.19
9.63
9.74
9.56
9.11
8.42
7.50
6.36
5.02
3.47
1.69
-0.31
-2.47
-4.62
-6.55
-8.06
-9.05
-9.55
-9.72
-9.78
-9.85
-9.95
-9.98
-9.76
-9.14
-7.99
-6.26
-3.92
-1.00
2.41
6.14
9.98
13.69
17.06
19.94
22.26
24.01
25.19
25.78
25.74
25.02
23.58
21.46
18.85
15.99
13.22
10.77
8.76
7.15
5.77
4.50
3.26
2.05
0.93
-0.08
-0.97
-1.79
-2.59
-3.40
-4.23
-5.11
-6.05
-7.05
-8.08
-9.10
-10.09
-11.05
-12.08
-13.25
-14.62
-16.08
-17.48
-18.60
-19.27
-19.37
-18.82
-17.63
-15.83
-13.53
-10.85
-7.96
-4.99
-2.05
0.83
3.60
6.15
8.34
10.02
11.08
11.52
11.44
11.05
10.58
10.25
10.15
10.25
10.36
10.24
9.71
8.67
7.24
5.55
3.77
1.94
0.08
-1.79
-3.57
-5.13
-6.32
-7.12
-7.64
-8.02
-8.45
-9.01
-9.77
-10.67
-11.69
-12.71
-13.58
-14.09
-14.06
-13.40
-12.13
-10.39
-8.33
-6.10
-3.82
-1.54
0.68
2.75
4.51
5.79
6.47
6.56
6.27
5.89
5.73
5.95
6.53
7.25
7.84
8.11
8.01
7.65
7.25
7.00
6.98
7.19
7.53
7.89
8.17
8.33
8.33
8.17
7.84
7.29
6.48
5.37
3.98
2.37
0.59
-1.27
-3.15
-4.90
-6.36
-7.32
-7.62
-7.22
-6.18
-4.68
-2.98
-1.29
0.22
1.45
2.39
3.03
3.40
3.55
3.58
3.57
3.62
3.78
4.03
4.31
4.51
4.57
4.53
4.51
4.61
4.89
5.27
5.56
5.55
5.14
4.31
3.19
1.97
0.79
-0.22
-1.02
-1.61
-2.09
-2.59
-3.29
-4.34
-5.86
-7.80
-9.92
-11.87
-13.21
-13.54
-12.68
-10.66
-7.80
-4.50
-1.21
1.77
4.28
6.33
8.04
9.52
10.88
12.17
13.38
14.45
15.31
15.90
16.17
16.16
15.92
15.50
14.87
13.93
12.52
10.54
7.97
4.92
1.60
-1.75
-4.94
-7.82
-10.28
-12.27
-13.79
-14.91
-15.79
-16.64
-17.67
-19.03
-20.76
-22.81
-25.01
-27.14
-28.95
-30.17
-30.60
-30.10
-28.72
-26.61
-24.04
-21.27
-18.51
-15.87
-13.39
-11.06
-8.87
-6.86
-5.05
-3.48
-2.11
-0.91
0.20
1.26
2.21
2.98
3.47
3.71
3.79
3.86
4.07
4.43
4.89
5.30
5.56
5.65
5.64
5.64
5.71
5.84
5.96
5.98
5.82
5.46
4.92
4.20
3.30
2.25
1.12
0.07
-0.66
-0.83
-0.24
1.11
3.08
5.40
7.75
9.92
11.76
13.26
14.44
15.30
15.76
15.81
15.43
14.72
13.84
13.00
12.36
11.96
11.75
11.60
11.39
11.05
10.59
10.07
9.55
9.05
8.55
8.01
7.35
6.58
5.70
4.72
3.65
2.44
1.07
-0.53
-2.35
-4.35
-6.45
-8.49
-10.24
-11.45
-11.95
-11.61
-10.48
-8.73
-6.63
-4.45
-2.42
-0.66
0.78
1.86
2.57
2.84
2.69
2.17
1.47
0.78
0.27
0.04
0.06
0.26
0.55
0.91
1.33
1.85
2.47
3.09
3.60
3.86
3.79
3.41
2.80
2.08
1.32
0.58
-0.19
-1.06
-2.13
-3.46
-5.07
-6.89
-8.79
-10.54
-11.84
-12.43
-12.11
-10.86
-8.77
-6.08
-3.05
0.04
2.90
5.27
6.96
7.92
8.25
8.19
8.00
7.84
7.75
7.64
7.38
6.99
6.59
6.38
6.46
6.81
7.25
7.55
7.50
7.03
6.22
5.19
4.07
2.92
1.75
0.58
-0.57
-1.63
-2.53
-3.25
-3.87
-4.61
-5.65
-7.06
-8.68
-10.14
-10.98
-10.87
-9.77
-7.87
-5.50
-2.94
-0.31
2.35
4.99
7.46
9.52
10.98
11.86
12.36
12.82
13.47
14.36
15.37
16.28
16.93
17.31
17.54
17.70
17.80
17.71
17.26
16.30
14.81
12.90
10.70
8.34
5.80
3.01
-0.05
-3.27
-6.39
-9.09
-11.11
-12.36
-12.99
-13.30
-13.59
-14.05
-14.66
-15.26
-15.59
-15.43
-14.68
-13.41
-11.84
-10.21
-8.69
-7.31
-6.01
-4.72
-3.52
-2.60
-2.13
-2.14
-2.43
-2.66
-2.54
-1.97
-1.11
-0.26
0.33
0.60
0.67
0.72
0.88
1.11
1.34
1.45
1.41
1.23
0.93
0.49
-0.12
-0.87
-1.72
-2.57
-3.37
-4.17
-5.11
-6.35
-7.98
-9.94
-12.03
-13.98
-15.48
-16.28
-16.24
-15.30
-13.55
-11.16
-8.40
-5.58
-2.93
-0.59
1.40
3.07
4.47
5.61
6.46
6.97
7.11
6.91
6.50
6.05
5.69
5.48
5.42
5.44
5.44
5.38
5.19
4.80
4.16
3.30
2.25
1.13
0.05
-0.90
-1.70
-2.43
-3.22
-4.21
-5.49
-7.09
-8.96
-11.00
-13.00
-14.72
-15.83
-16.07
-15.29
-13.53
-11.01
-8.09
-5.18
-2.61
-0.63
0.75
1.63
2.20
2.65
3.03
3.27
3.27
2.97
2.46
1.98
1.74
1.85
2.20
2.57
2.72
2.59
2.33
2.21
2.37
2.77
3.13
3.12
2.54
1.37
-0.15
-1.75
-3.17
-4.31
-5.18
-5.88
-6.53
-7.29
-8.26
-9.43
-10.66
-11.59
-11.81
-10.95
-8.89
-5.82
-2.18
1.53
4.95
7.92
10.51
12.81
14.84
16.52
17.73
18.41
18.64
18.55
18.27
17.85
17.20
16.17
14.62
12.47
9.77
6.66
3.40
0.20
-2.79
-5.53
-8.10
-10.56
-12.95
-15.14
-16.97
-18.28
-19.07
-19.46
-19.69
-19.93
-20.23
-20.53
-20.72
-20.67
-20.36
-19.75
-18.78
-17.36
-15.38
-12.80
-9.70
-6.29
-2.85
0.37
3.22
5.65
7.69
9.34
10.56
11.24
11.32
10.88
10.11
9.36
8.92
8.96
9.47
10.26
11.14
11.95
12.59
13.04
13.18
12.94
12.21
10.99
9.37
7.55
5.72
4.06
2.63
1.49
0.64
0.07
-0.24
-0.43
-0.67
-1.22
-2.22
-3.68
-5.39
-6.95
-7.91
-7.91
-6.79
-4.66
-1.90
1.07
3.83
6.11
7.85
9.07
9.85
10.24
10.29
10.06
9.64
9.17
8.74
8.35
7.94
7.38
6.59
5.56
4.38
3.21
2.14
1.25
0.52
-0.12
-0.76
-1.50
-2.41
-3.49
-4.66
-5.84
-6.89
-7.72
-8.34
-8.81
-9.31
-9.95
-10.80
-11.80
-12.80
-13.58
-13.95
-13.74
-12.95
-11.60
-9.83
-7.82
-5.78
-3.85
-2.09
-0.56
0.74
1.82
2.64
3.22
3.57
3.76
3.84
3.86
3.80
3.62
3.29
2.82
2.35
2.09
2.22
2.82
3.73
4.64
5.20
5.16
4.52
3.50
2.43
1.56
0.98
0.64
0.38
0.09
-0.26
-0.71
-1.32
-2.15
-3.20
-4.33
-5.24
-5.58
-5.12
-3.86
-1.99
0.20
2.44
4.56
6.47
8.16
9.57
10.64
11.28
11.49
11.29
10.79
10.10
9.36
8.61
7.85
7.04
6.13
5.16
4.22
3.42
2.84
2.47
2.18
1.79
1.17
0.25
-0.89
-2.10
-3.27
-4.33
-5.32
-6.36
-7.56
-9.00
-10.68
-12.56
-14.60
-16.69
-18.71
-20.44
-21.63
-22.08
-21.71
-20.61
-18.99
-17.12
-15.20
-13.34
-11.67
-10.26
-9.22
-8.67
-8.65
-9.10
-9.90
-10.87
-11.89
-12.92
-14.00
-15.15
-16.28
-17.19
-17.61
-17.31
-16.21
-14.47
-12.40
-10.35
-8.59
-7.22
-6.26
-5.68
-5.42
-5.46
-5.71
-6.02
-6.25
-6.32
-6.28
-6.30
-6.54
-7.01
-7.45
-7.39
-6.32
-3.85
0.10
5.28
11.24
17.50
23.64
29.41
34.62
39.12
42.75
45.33
46.72
46.88
45.87
43.84
41.04
37.73
34.16
30.50
26.82
23.13
19.48
15.96
12.82
10.30
8.57
7.60
7.13
6.79
6.23
5.29
3.99
2.52
1.04
-0.37
-1.73
-3.15
-4.72
-6.48
-8.42
-10.51
-12.67
-14.78
-16.68
-18.12
-18.80
-18.47
-16.98
-14.37
-10.89
-6.93
-2.91
0.83
4.09
6.84
9.14
11.10
12.76
14.11
15.09
15.66
15.86
15.76
15.51
15.26
15.15
15.25
15.56
16.03
16.57
17.10
17.55
17.86
18.00
17.98
17.82
17.59
17.30
16.92
16.35
15.44
14.06
12.19
9.87
7.24
4.41
1.49
-1.39
-4.05
-6.21
-7.66
-8.33
-8.38
-8.10
-7.82
-7.75
-7.92
-8.20
-8.49
-8.78
-9.14
-9.66
-10.36
-11.13
-11.83
-12.31
-12.53
-12.53
-12.41
-12.24
-12.02
-11.74
-11.31
-10.73
-10.01
-9.28
-8.65
-8.29
-8.26
-8.63
-9.42
-10.59
-12.13
-14.00
-16.11
-18.37
-20.70
-23.00
-25.18
-27.15
-28.74
-29.76
-29.92
-29.03
-27.01
-24.03
-20.43
-16.63
-12.97
-9.61
-6.51
-3.57
-0.75
1.87
4.05
5.61
6.52
6.96
7.24
7.71
8.53
9.75
11.25
12.83
14.31
15.55
16.42
16.92
17.08
16.93
16.54
15.92
15.11
14.14
13.10
12.10
11.23
10.42
9.52
8.32
6.69
4.70
2.65
0.99
0.17
0.47
1.90
4.23
7.07
10.01
12.74
15.11
17.03
18.55
19.69
20.53
21.11
21.48
21.67
21.73
21.67
21.46
21.07
20.47
19.64
18.62
17.45
16.22
14.94
13.57
12.00
10.16
8.04
5.73
3.38
1.10
-1.11
-3.36
-5.82
-8.62
-11.79
-15.21
-18.69
-21.98
-24.82
-26.90
-27.98
-27.89
-26.67
-24.55
-21.87
-19.02
-16.26
-13.72
-11.39
-9.24
-7.28
-5.54
-4.04
-2.74
-1.57
-0.38
0.87
2.18
3.46
4.60
5.50
6.08
6.30
6.13
5.56
4.61
3.32
1.79
0.11
-1.63
-3.34
-4.98
-6.50
-7.91
-9.25
-10.59
-12.01
-13.54
-15.13
-16.57
-17.56
-17.77
-16.92
-14.92
-11.91
-8.22
-4.26
-0.42
2.98
5.81
7.98
9.47
10.30
10.56
10.32
9.74
8.94
8.09
7.30
6.66
6.26
6.08
6.08
6.15
6.13
5.88
5.27
4.31
3.01
1.52
-0.01
-1.44
-2.69
-3.80
-4.90
-6.19
-7.82
-9.82
-12.08
-14.34
-16.28
-17.55
-17.89
-17.17
-15.43
-12.89
-9.92
-6.92
-4.21
-1.94
-0.12
1.34
2.51
3.41
4.01
4.30
4.36
4.36
4.49
4.81
5.29
5.75
6.01
5.99
5.77
5.54
5.47
5.62
5.90
6.09
6.02
5.58
4.80
3.79
2.68
1.55
0.42
-0.76
-2.00
-3.32
-4.69
-5.99
-7.05
-7.67
-7.62
-6.79
-5.18
-2.92
-0.27
2.51
5.20
7.64
9.76
11.53
12.93
13.94
14.52
14.61
14.24
13.47
12.48
11.46
10.61
10.06
9.81
9.77
9.79
9.70
9.37
8.73
7.79
6.59
5.25
3.88
2.58
1.37
0.22
-0.98
-2.33
-3.93
-5.75
-7.73
-9.73
-11.56
-13.00
-13.82
-13.83
-12.96
-11.28
-9.04
-6.58
-4.27
-2.37
-0.92
0.17
1.06
1.82
2.39
2.62
2.43
1.82
1.00
0.20
-0.38
-0.70
-0.83
-0.94
-1.13
-1.40
-1.68
-1.91
-2.08
-2.29
-2.64
-3.18
-3.85
-4.48
-4.91
-5.05
-5.03
-5.11
-5.59
-6.68
-8.37
-10.44
-12.50
-14.16
-15.10
-15.14
-14.24
-12.51
-10.17
-7.52
-4.91
-2.60
-0.79
0.53
1.45
2.09
2.56
2.83
2.87
2.69
2.41
2.25
2.41
2.99
3.85
4.72
5.30
5.42
5.12
4.61
4.12
3.77
3.50
3.13
2.47
1.44
0.12
-1.31
-2.65
-3.82
-4.87
-5.95
-7.19
-8.64
-10.23
-11.75
-13.01
-13.76
-13.87
-13.25
-11.94
-10.07
-7.86
-5.50
-3.22
-1.19
0.44
1.55
2.06
2.02
1.59
1.07
0.79
0.95
1.57
2.51
3.55
4.55
5.48
6.32
7.02
7.36
7.16
6.31
4.97
3.51
2.32
1.61
1.33
1.18
0.86
0.24
-0.60
-1.44
-2.13
-2.66
-3.13
-3.63
-4.10
-4.34
-4.08
-3.20
-1.76
0.00
1.82
3.54
5.15
6.71
8.24
9.61
10.58
10.92
10.56
9.64
8.49
7.46
6.75
6.39
6.25
6.15
6.02
5.89
5.85
5.96
6.15
6.31
6.30
6.07
5.67
5.21
4.77
4.33
3.78
3.00
1.91
0.50
-1.15
-2.97
-4.84
-6.66
-8.29
-9.49
-10.01
-9.61
-8.19
-5.91
-3.10
-0.26
2.14
3.83
4.79
5.17
5.22
5.16
5.10
5.04
4.94
4.77
4.58
4.46
4.51
4.76
5.16
5.57
5.80
5.69
5.16
4.28
3.22
2.18
1.31
0.64
0.05
-0.61
-1.48
-2.60
-3.90
-5.33
-6.82
-8.40
-10.05
-11.72
-13.21
-14.22
-14.48
-13.81
-12.27
-10.09
-7.61
-5.14
-2.95
-1.13
0.33
1.51
2.55
3.51
4.37
5.00
5.26
5.10
4.62
4.11
3.90
4.17
4.83
5.58
6.06
6.03
5.50
4.70
3.91
3.25
2.70
2.10
1.30
0.25
-0.96
-2.26
-3.66
-5.35
-7.53
-10.32
-13.61
-16.96
-19.76
-21.47
-21.82
-20.92
-19.15
-16.97
-14.73
-12.56
-10.48
-8.47
-6.58
-4.94
-3.69
-2.86
-2.35
-1.94
-1.40
-0.59
0.55
1.92
3.40
4.87
6.24
7.49
8.58
9.43
9.92
9.92
9.39
8.40
7.14
5.84
4.62
3.49
2.30
0.90
-0.77
-2.69
-4.75
-6.84
-8.90
-10.85
-12.55
-13.77
-14.26
-13.80
-12.34
-9.98
-6.99
-3.73
-0.55
2.24
4.41
5.81
6.39
6.26
5.71
5.10
4.76
4.86
5.38
6.12
6.78
7.15
7.14
6.83
6.37
5.86
5.32
4.67
3.79
2.66
1.34
-0.02
-1.28
-2.40
-3.43
-4.48
-5.68
-7.02
-8.41
-9.71
-10.79
-11.59
-12.07
-12.19
-11.86
-10.92
-9.26
-6.84
-3.81
-0.44
2.92
6.00
8.62
10.75
12.46
13.81
14.83
15.51
15.83
15.84
15.65
15.40
15.17
14.95
14.67
14.23
13.62
12.89
12.15
11.49
10.91
10.31
9.58
8.59
7.31
5.76
4.04
2.26
0.58
-0.92
-2.20
-3.34
-4.54
-6.01
-7.87
-10.02
-12.08
-13.60
-14.15
-13.56
-11.95
-9.71
-7.25
-4.86
-2.62
-0.49
1.58
3.51
5.13
6.26
6.82
6.92
6.79
6.70
6.82
7.21
7.80
8.44
8.95
9.23
9.28
9.13
8.92
8.71
8.53
8.32
7.93
7.26
6.28
5.04
3.65
2.21
0.76
-0.67
-2.13
-3.62
-5.20
-6.86
-8.59
-10.34
-12.02
-13.48
-14.56
-15.05
-14.80
-13.70
-11.73
-8.97
-5.64
-1.97
1.70
5.08
7.92
10.06
11.47
12.24
12.57
12.67
12.73
12.88
13.13
13.45
13.70
13.74
13.46
12.81
11.90
10.91
10.06
9.48
9.20
9.04
8.74
8.03
6.80
5.08
3.10
1.16
-0.50
-1.74
-2.56
-3.09
-3.55
-4.13
-4.97
-6.11
-7.43
-8.69
-9.60
-9.88
-9.35
-8.02
-6.04
-3.64
-1.08
1.40
3.61
5.38
6.60
7.18
7.18
6.74
6.10
5.48
5.05
4.85
4.84
4.94
5.07
5.20
5.34
5.49
5.65
5.78
5.84
5.77
5.50
4.98
4.15
3.01
1.61
0.06
-1.53
-3.06
-4.49
-5.84
-7.15
-8.52
-10.02
-11.73
-13.64
-15.71
-17.76
-19.51
-20.65
-20.91
-20.17
-18.51
-16.18
-13.47
-10.68
-8.01
-5.59
-3.47
-1.71
-0.36
0.57
1.16
1.57
1.97
2.53
3.27
4.10
4.85
5.41
5.74
5.91
6.03
6.16
6.25
6.16
5.72
4.86
3.65
2.26
0.89
-0.36
-1.48
-2.54
-3.62
-4.75
-5.89
-7.02
-8.14
-9.36
-10.69
-12.08
-13.28
-13.94
-13.76
-12.59
-10.52
-7.80
-4.75
-1.63
1.39
4.24
6.84
9.05
10.70
11.62
11.78
11.31
10.54
9.82
9.40
9.36
9.56
9.76
9.74
9.42
8.89
8.30
7.78
7.34
6.87
6.26
5.42
4.33
3.03
1.56
-0.05
-1.72
-3.37
-4.87
-6.17
-7.31
-8.41
-9.70
-11.29
-13.17
-15.16
-17.00
-18.41
-19.17
-19.15
-18.28
-16.53
-13.99
-10.83
-7.28
-3.64
-0.14
3.01
5.69
7.79
9.27
10.15
10.52
10.61
10.60
10.64
10.78
10.94
11.04
11.03
10.95
10.85
10.75
10.56
10.15
9.43
8.40
7.15
5.88
4.72
3.73
2.87
2.00
1.01
-0.16
-1.52
-2.98
-4.46
-5.89
-7.31
-8.81
-10.47
-12.32
-14.20
-15.80
-16.74
-16.69
-15.54
-13.49
-10.92
-8.25
-5.72
-3.34
-0.96
1.54
4.11
6.48
8.29
9.34
9.63
9.41
9.01
8.71
8.63
8.75
8.98
9.27
9.58
9.89
10.11
10.10
9.71
8.92
7.81
6.57
5.42
4.45
3.65
2.87
1.94
0.74
-0.68
-2.13
-3.42
-4.43
-5.22
-6.02
-7.12
-8.70
-10.73
-12.97
-15.11
-16.78
-17.78
-17.93
-17.19
-15.57
-13.17
-10.21
-7.00
-3.90
-1.19
0.98
2.61
3.79
4.63
5.20
5.55
5.73
5.82
5.93
6.17
6.59
7.17
7.82
8.41
8.81
8.92
8.72
8.26
7.66
7.06
6.57
6.23
5.96
5.66
5.22
4.59
3.83
2.99
2.09
1.12
0.00
-1.33
-2.89
-4.67
-6.62
-8.72
-10.98
-13.35
-15.69
-17.76
-19.24
-19.84
-19.40
-17.97
-15.78
-13.20
-10.61
-8.31
-6.40
-4.87
-3.59
-2.42
-1.31
-0.33
0.40
0.76
0.78
0.55
0.27
0.08
-0.01
-0.12
-0.44
-1.15
-2.35
-4.02
-6.03
-8.22
-10.43
-12.53
-14.46
-16.29
-18.20
-20.43
-23.22
-26.59
-30.35
-34.14
-37.58
-40.46
-42.82
-44.84
-46.64
-48.21
-49.39
-50.04
-50.17
-49.87
-49.23
-48.21
-46.66
-44.51
-41.91
-39.20
-36.70
-34.38
-31.72
-27.96
-22.56
-15.67
-8.27
-1.75
2.69
4.56
4.31
3.06
2.09
2.41
4.45
8.13
12.95
18.38
24.06
30.06
36.95
45.61
56.76
70.40
85.41
99.69
110.88
117.25
118.45
115.44
109.77
102.60
94.13
83.65
70.32
53.98
35.54
16.71
-0.71
-15.51
-27.27
-36.16
-42.39
-45.96
-46.65
-44.35
-39.32
-32.35
-24.59
-17.14
-10.73
-5.54
-1.33
2.31
5.70
8.97
12.01
14.67
16.82
18.30
18.97
18.63
17.08
14.28
10.52
6.34
2.40
-0.78
-3.00
-4.41
-5.31
-5.98
-6.48
-6.67
-6.37
-5.45
-3.96
-2.05
0.09
2.37
4.75
7.23
9.67
11.76
12.98
12.80
10.82
7.01
1.83
-3.94
-9.34
-13.58
-16.23
-17.32
-17.24
-16.56
-15.81
-15.33
-15.24
-15.42
-15.63
-15.59
-15.11
-14.14
-12.76
-11.14
-9.47
-7.94
-6.65
-5.68
-5.08
-4.88
-5.09
-5.71
-6.72
-8.10
-9.77
-11.62
-13.45
-15.02
-16.07
-16.50
-16.35
-15.86
-15.34
-15.09
-15.26
-15.78
-16.45
-16.97
-17.09
-16.70
-15.81
-14.56
-13.08
-11.46
-9.69
-7.70
-5.41
-2.80
0.09
3.13
6.20
9.17
12.00
14.62
16.94
18.85
20.21
20.95
21.07
20.69
20.01
19.23
18.55
18.10
17.97
18.20
18.73
19.46
20.20
20.73
20.83
20.34
19.17
17.37
15.09
12.60
10.18
7.98
5.99
4.05
1.95
-0.42
-2.98
-5.52
-7.83
-9.79
-11.41
-12.72
-13.64
-13.94
-13.27
-11.41
-8.45
-4.89
-1.42
1.30
2.91
3.41
3.09
2.24
1.12
-0.18
-1.63
-3.11
-4.41
-5.22
-5.30
-4.59
-3.23
-1.49
0.29
1.90
3.24
4.35
5.31
6.17
6.84
7.15
6.88
5.90
4.28
2.29
0.31
-1.36
-2.65
-3.71
-4.90
-6.60
-9.08
-12.38
-16.26
-20.28
-23.81
-26.27
-27.20
-26.43
-24.12
-20.66
-16.58
-12.36
-8.34
-4.70
-1.53
1.13
3.21
4.74
5.76
6.39
6.74
6.95
7.08
7.18
7.28
7.32
7.23
6.88
6.16
5.06
3.63
1.97
0.16
-1.75
-3.71
-5.59
-7.16
-8.19
-8.57
-8.43
-8.07
-7.85
-8.03
-8.65
-9.57
-10.61
-11.56
-12.28
-12.58
-12.23
-10.98
-8.70
-5.50
-1.71
2.20
5.81
8.93
11.59
14.03
16.43
18.81
20.91
22.30
22.58
21.63
19.68
17.27
14.99
13.20
11.91
10.81
9.57
8.05
6.42
5.03
4.15
3.78
3.64
3.37
2.73
1.75
0.64
-0.36
-1.14
-1.78
-2.40
-3.09
-3.78
-4.28
-4.43
-4.12
-3.39
-2.35
-1.09
0.35
2.03
4.03
6.47
9.31
12.43
15.56
18.41
20.78
22.56
23.76
24.42
24.53
24.05
22.99
21.45
19.69
17.97
16.49
15.24
14.07
12.82
11.50
10.32
9.57
9.42
9.79
10.31
10.60
10.41
9.78
8.97
8.22
7.64
7.15
6.55
5.69
4.52
3.07
1.37
-0.54
-2.62
-4.68
-6.44
-7.50
-7.57
-6.53
-4.54
-1.92
0.90
3.61
6.02
8.16
10.15
12.11
14.09
15.98
17.59
18.76
19.44
19.78
20.01
20.32
20.72
21.10
21.25
21.04
20.48
19.69
18.84
18.01
17.15
16.06
14.51
12.32
9.47
6.10
2.50
-1.00
-4.16
-6.88
-9.26
-11.53
-13.91
-16.50
-19.22
-21.87
-24.17
-25.90
-26.88
-27.04
-26.35
-24.83
-22.62
-19.97
-17.23
-14.74
-12.68
-11.10
-9.89
-8.91
-8.12
-7.62
-7.50
-7.83
-8.55
-9.44
-10.29
-10.87
-11.11
-10.98
-10.57
-9.97
-9.32
-8.72
-8.21
-7.77
-7.31
-6.78
-6.17
-5.56
-5.02
-4.59
-4.21
-3.77
-3.19
-2.48
-1.76
-1.19
-0.88
-0.88
-1.17
-1.68
-2.34
-3.06
-3.70
-4.07
-4.02
-3.42
-2.28
-0.70
1.14
2.98
4.58
5.74
6.36
6.46
6.24
5.89
5.58
5.34
5.03
4.51
3.75
2.84
2.02
1.47
1.24
1.19
1.13
0.91
0.50
-0.00
-0.51
-0.96
-1.39
-1.81
-2.23
-2.58
-2.84
-3.08
-3.41
-3.93
-4.63
-5.33
-5.83
-5.96
-5.78
-5.48
-5.31
-5.42
-5.81
-6.30
-6.68
-6.75
-6.42
-5.63
-4.39
-2.73
-0.72
1.54
3.90
6.20
8.26
9.96
11.23
12.12
12.70
13.14
13.50
13.85
14.11
14.23
14.21
14.14
14.16
14.32
14.52
14.55
14.17
13.30
12.07
10.79
9.75
9.09
8.70
8.27
7.50
6.23
4.55
2.71
0.97
-0.48
-1.62
-2.54
-3.37
-4.17
-4.95
-5.65
-6.29
-6.89
-7.56
-8.36
-9.30
-10.31
-11.17
-11.65
-11.54
-10.77
-9.39
-7.55
-5.48
-3.36
-1.31
0.59
2.25
3.53
4.31
4.52
4.22
3.61
2.98
2.59
2.59
2.97
3.61
4.32
4.93
5.31
5.38
5.12
4.60
3.92
3.21
2.59
2.14
1.90
1.87
2.01
2.29
2.60
2.77
2.65
2.14
1.28
0.21
-0.84
-1.64
-2.07
-2.12
-1.91
-1.62
-1.45
-1.56
-1.97
-2.61
-3.23
-3.53
-3.19
-2.02
-0.03
2.64
5.75
9.06
12.38
15.54
18.39
20.77
22.62
23.87
24.56
24.73
24.41
23.58
22.24
20.44
18.31
16.04
13.72
11.35
8.74
5.65
1.88
-2.59
-7.56
-12.66
-17.39
-21.27
-23.92
-25.14
-24.93
-23.55
-21.42
-19.07
-17.01
-15.64
-15.11
-15.31
-15.91
-16.44
-16.47
-15.79
-14.44
-12.73
-11.07
-9.83
-9.18
-9.07
-9.29
-9.53
-9.48
-8.93
-7.77
-5.99
-3.73
-1.24
1.15
3.12
4.42
4.97
4.83
4.16
3.16
2.02
0.87
-0.18
-1.02
-1.61
-1.90
-1.95
-1.90
-1.90
-2.12
-2.62
-3.36
-4.23
-5.08
-5.82
-6.39
-6.85
-7.24
-7.65
-8.08
-8.52
-8.91
-9.23
-9.49
-9.75
-10.04
-10.38
-10.76
-11.15
-11.54
-11.92
-12.33
-12.76
-13.19
-13.50
-13.48
-12.90
-11.56
-9.42
-6.59
-3.43
-0.34
2.34
4.47
6.12
7.48
8.72
9.87
10.82
11.41
11.56
11.34
10.96
10.64
10.51
10.59
10.76
10.93
11.01
11.01
10.93
10.74
10.39
9.85
9.16
8.43
7.77
7.22
6.74
6.16
5.33
4.18
2.77
1.24
-0.29
-1.72
-3.05
-4.31
-5.55
-6.74
-7.81
-8.67
-9.18
-9.23
-8.72
-7.59
-5.94
-3.95
-1.87
0.04
1.60
2.74
3.47
3.84
3.88
3.63
3.13
2.43
1.64
0.88
0.28
-0.12
-0.34
-0.51
-0.73
-1.09
-1.54
-1.95
-2.18
-2.17
-1.92
-1.54
-1.20
-1.02
-1.09
-1.47
-2.13
-3.01
-3.95
-4.79
-5.34
-5.55
-5.48
-5.31
-5.20
-5.26
-5.50
-5.79
-5.99
-5.99
-5.69
-5.07
-4.14
-2.95
-1.59
-0.19
1.15
2.30
3.21
3.84
4.20
4.38
4.49
4.64
4.94
5.42
6.07
6.83
7.64
8.41
9.03
9.42
9.49
9.23
8.75
8.18
7.65
7.24
6.90
6.54
6.10
5.57
4.97
4.28
3.39
2.18
0.61
-1.23
-3.12
-4.81
-6.20
-7.33
-8.37
-9.47
-10.73
-12.07
-13.37
-14.47
-15.25
-15.67
-15.71
-15.42
-14.84
-14.08
-13.23
-12.33
-11.43
-10.53
-9.65
-8.79
-7.99
-7.27
-6.62
-6.05
-5.55
-5.18
-5.01
-5.12
-5.55
-6.25
-7.09
-7.92
-8.61
-9.10
-9.46
-9.79
-10.28
-11.01
-11.99
-13.13
-14.24
-15.05
-15.34
-14.92
-13.73
-11.86
-9.53
-6.96
-4.34
-1.79
0.70
3.13
5.50
7.80
10.00
12.10
14.12
16.05
17.81
19.27
20.26
20.71
20.66
20.31
19.91
19.73
19.94
20.62
21.74
23.18
24.73
26.14
27.21
27.83
28.06
28.11
28.29
28.85
29.94
31.44
33.06
34.33
34.80
34.17
32.40
29.76
26.66
23.56
20.74
18.23
15.79
13.09
9.84
5.88
1.31
-3.58
-8.34
-12.49
-15.62
-17.51
-18.15
-17.74
-16.56
-14.84
-12.57
-9.55
-5.40
0.23
7.49
16.08
25.30
34.10
41.36
46.16
48.02
47.00
43.67
38.84
33.34
27.86
22.83
18.37
14.50
11.11
8.21
5.93
4.63
4.86
7.18
11.91
18.84
26.98
34.64
39.81
40.80
36.89
28.64
17.74
6.40
-3.44
-10.65
-15.04
-17.04
-17.20
-15.86
-13.17
-9.33
-4.83
-0.47
3.05
5.45
7.15
8.94
11.43
14.37
16.47
15.66
9.86
-2.17
-20.37
-43.32
-68.62
-93.36
-114.64
-129.94
-137.48
-136.58
-127.85
-113.18
-95.28
-77.01
-60.71
-47.77
-38.61
-32.95
-30.13
-29.41
-30.01
-31.25
-32.46
-33.22
-33.31
-32.79
-31.86
-30.75
-29.53
-28.15
-26.40
-24.06
-21.04
-17.34
-13.16
-8.82
-4.69
-1.13
1.63
3.53
4.66
5.26
5.63
6.07
6.72
7.55
8.38
8.93
9.00
8.54
7.68
6.72
5.93
5.44
5.20
4.99
4.62
3.97
3.13
2.26
1.54
1.05
0.75
0.54
0.29
-0.10
-0.68
-1.48
-2.52
-3.79
-5.21
-6.57
-7.62
-8.10
-7.82
-6.74
-5.00
-2.84
-0.56
1.54
3.25
4.45
5.10
5.22
4.93
4.43
3.92
3.59
3.57
3.84
4.30
4.84
5.32
5.67
5.81
5.73
5.44
5.00
4.50
4.06
3.73
3.46
3.18
2.75
2.16
1.48
0.87
0.44
0.23
0.18
0.18
0.08
-0.19
-0.66
-1.28
-1.92
-2.42
-2.57
-2.22
-1.33
0.02
1.63
3.28
4.78
6.05
7.10
8.00
8.85
9.66
10.41
11.01
11.39
11.54
11.56
11.58
11.72
11.97
12.19
12.16
11.70
10.79
9.56
8.29
7.22
6.46
5.94
5.50
4.99
4.43
3.91
3.59
3.52
3.61
3.64
3.35
2.63
1.50
0.14
-1.27
-2.57
-3.69
-4.60
-5.24
-5.54
-5.42
-4.86
-3.93
-2.78
-1.59
-0.49
0.45
1.21
1.83
2.36
2.79
3.10
3.26
3.26
3.18
3.16
3.31
3.70
4.25
4.81
5.21
5.37
5.31
5.11
4.85
4.54
4.11
3.47
2.62
1.64
0.68
-0.08
-0.53
-0.70
-0.72
-0.73
-0.85
-1.11
-1.44
-1.81
-2.21
-2.72
-3.42
-4.32
-5.29
-6.07
-6.37
-6.01
-4.99
-3.52
-1.88
-0.31
1.06
2.27
3.37
4.38
5.24
5.86
6.16
6.17
5.98
5.69
5.40
5.11
4.81
4.52
4.29
4.14
4.10
4.13
4.18
4.24
4.29
4.38
4.51
4.63
4.68
4.60
4.36
3.98
3.51
3.00
2.53
2.13
1.77
1.38
0.84
0.05
-1.01
-2.29
-3.60
-4.74
-5.53
-5.88
-5.73
-5.08
-3.91
-2.31
-0.42
1.53
3.26
4.60
5.46
5.89
6.00
5.92
5.77
5.64
5.57
5.57
5.62
5.65
5.63
5.53
5.38
5.23
5.11
5.00
4.84
4.57
4.17
3.69
3.20
2.76
2.33
1.83
1.18
0.38
-0.52
-1.44
-2.29
-3.08
-3.86
-4.66
-5.47
-6.21
-6.76
-7.01
-6.95
-6.64
-6.19
-5.65
-5.03
-4.29
-3.37
-2.23
-0.90
0.55
2.04
3.44
4.67
5.62
6.23
6.50
6.47
6.33
6.26
6.45
6.94
7.67
8.47
9.15
9.57
9.68
9.49
9.07
8.48
7.74
6.92
6.12
5.46
5.05
4.93
4.97
4.95
4.60
3.70
2.23
0.32
-1.85
-4.07
-6.26
-8.40
-10.50
-12.48
-14.21
-15.54
-16.40
-16.85
-17.04
-17.12
-17.16
-17.11
-16.81
-16.18
-15.15
-13.80
-12.21
-10.49
-8.71
-6.94
-5.32
-3.95
-2.93
-2.24
-1.81
-1.51
-1.24
-0.96
-0.66
-0.36
-0.04
0.29
0.57
0.72
0.63
0.22
-0.46
-1.36
-2.42
-3.60
-4.89
-6.21
-7.36
-8.08
-8.11
-7.36
-5.99
-4.31
-2.71
-1.42
-0.47
0.28
1.04
1.90
2.87
3.88
4.83
5.71
6.58
7.52
8.54
9.54
10.39
10.95
11.17
11.10
10.87
10.60
10.36
10.16
9.97
9.73
9.40
9.01
8.63
8.28
8.02
7.83
7.71
7.67
7.73
7.84
7.91
7.73
7.10
5.89
4.17
2.18
0.29
-1.17
-2.06
-2.47
-2.68
-3.00
-3.66
-4.72
-6.02
-7.24
-8.06
-8.21
-7.60
-6.36
-4.77
-3.14
-1.73
-0.65
0.14
0.75
1.24
1.63
1.88
1.95
1.82
1.54
1.20
0.86
0.57
0.31
0.06
-0.19
-0.47
-0.77
-1.09
-1.41
-1.73
-2.04
-2.35
-2.63
-2.85
-2.95
-2.91
-2.78
-2.68
-2.77
-3.21
-4.07
-5.34
-6.90
-8.56
-10.07
-11.19
-11.71
-11.49
-10.58
-9.15
-7.48
-5.82
-4.33
-3.01
-1.79
-0.62
0.43
1.24
1.69
1.78
1.63
1.41
1.29
1.31
1.37
1.35
1.16
0.81
0.38
0.02
-0.21
-0.32
-0.41
-0.61
-0.99
-1.52
-2.08
-2.51
-2.71
-2.61
-2.28
-1.83
-1.37
-1.00
-0.75
-0.64
-0.68
-0.84
-1.01
-1.05
-0.81
-0.17
0.84
2.14
3.57
5.00
6.35
7.58
8.69
9.65
10.46
11.17
11.84
12.57
13.42
14.31
15.08
15.54
15.60
15.28
14.80
14.40
14.29
14.49
14.90
15.29
15.40
15.04
14.12
12.72
10.99
9.16
7.41
5.85
4.48
3.22
1.95
0.53
-1.11
-2.98
-4.99
-6.97
-8.70
-9.96
-10.60
-10.61
-10.04
-9.03
-7.74
-6.28
-4.78
-3.38
-2.25
-1.55
-1.35
-1.56
-2.02
-2.54
-3.01
-3.45
-3.92
-4.47
-5.06
-5.59
-5.95
-6.06
-5.96
-5.68
-5.29
-4.84
-4.37
-3.92
-3.54
-3.25
-3.05
-2.92
-2.81
-2.76
-2.84
-3.18
-3.87
-4.86
-5.98
-6.95
-7.47
-7.32
-6.49
-5.12
-3.49
-1.93
-0.66
0.19
0.67
0.92
1.08
1.28
1.54
1.87
2.21
2.54
2.86
3.14
3.40
3.60
3.73
3.80
3.84
3.91
4.02
4.15
4.25
4.28
4.22
4.11
4.00
3.87
3.61
3.06
2.04
0.43
-1.73
-4.27
-6.90
-9.32
-11.33
-12.84
-13.88
-14.59
-15.13
-15.64
-16.19
-16.86
-17.71
-18.77
-20.01
-21.33
-22.55
-23.49
-24.06
-24.24
-24.07
-23.54
-22.52
-20.82
-18.23
-14.67
-10.26
-5.29
-0.15
4.78
9.18
12.88
15.80
17.96
19.44
20.36
20.82
20.88
20.55
19.79
18.57
16.94
15.01
13.03
11.25
9.92
9.19
9.11
9.61
10.47
11.38
12.06
12.31
12.03
11.32
10.34
9.25
8.15
7.10
6.14
5.33
4.73
4.35
4.14
3.96
3.70
3.33
2.87
2.41
2.01
1.68
1.39
1.16
1.01
0.98
1.04
1.12
1.09
0.84
0.37
-0.19
-0.68
-0.98
-1.07
-1.03
-0.93
-0.82
-0.64
-0.32
0.21
0.95
1.85
2.82
3.80
4.72
5.52
6.14
6.49
6.55
6.33
5.89
5.33
4.74
4.19
3.70
3.35
3.18
3.19
3.32
3.43
3.36
3.00
2.33
1.42
0.38
-0.67
-1.70
-2.68
-3.58
-4.32
-4.81
-5.01
-4.93
-4.64
-4.26
-3.83
-3.38
-2.93
-2.53
-2.28
-2.22
-2.31
-2.39
-2.28
-1.89
-1.29
-0.68
-0.28
-0.19
-0.36
-0.63
-0.84
-0.96
-1.01
-1.03
-0.99
-0.80
-0.33
0.40
1.24
1.93
2.22
2.02
1.37
0.46
-0.50
-1.34
-1.99
-2.44
-2.69
-2.73
-2.56
-2.24
-1.85
-1.53
-1.37
-1.38
-1.50
-1.53
-1.30
-0.68
0.32
1.61
3.02
4.36
5.51
6.38
6.95
7.17
7.04
6.60
5.94
5.27
4.75
4.58
4.82
5.49
6.50
7.72
9.02
10.32
11.55
12.72
13.85
14.96
16.02
16.99
17.82
18.55
19.23
19.99
20.87
21.80
22.58
22.88
22.41
20.97
18.52
15.21
11.32
7.13
2.88
-1.28
-5.31
-9.20
-12.93
-16.41
-19.52
-22.11
-24.07
-25.36
-26.00
-26.03
-25.53
-24.58
-23.28
-21.78
-20.27
-18.90
-17.74
-16.80
-16.04
-15.40
-14.88
-14.51
-14.29
-14.19
-14.05
-13.71
-13.03
-12.01
-10.77
-9.50
-8.35
-7.33
-6.35
-5.25
-3.95
-2.41
-0.74
0.97
2.61
4.15
5.56
6.81
7.85
8.60
9.01
9.05
8.77
8.23
7.51
6.72
5.98
5.40
5.10
5.10
5.38
5.81
6.24
6.49
6.40
5.91
5.02
3.76
2.25
0.64
-0.93
-2.28
-3.30
-3.94
-4.26
-4.42
-4.64
-5.10
-5.86
-6.85
-7.85
-8.66
-9.13
-9.26
-9.14
-8.89
-8.61
-8.38
-8.29
-8.37
-8.62
-8.95
-9.18
-9.08
-8.53
-7.51
-6.19
-4.84
-3.68
-2.85
-2.31
-1.96
-1.69
-1.46
-1.36
-1.49
-1.90
-2.52
-3.18
-3.69
-3.91
-3.83
-3.55
-3.20
-2.87
-2.62
-2.40
-2.17
-1.89
-1.52
-1.04
-0.44
0.28
1.12
2.04
3.01
3.97
4.89
5.76
6.51
7.07
7.33
7.21
6.68
5.81
4.75
3.71
2.92
2.53
2.55
2.90
3.40
3.86
4.12
4.16
4.01
3.74
3.40
3.01
2.52
1.91
1.20
0.54
0.04
-0.24
-0.35
-0.48
-0.80
-1.40
-2.20
-3.00
-3.61
-3.87
-3.73
-3.21
-2.33
-1.16
0.20
1.62
2.92
3.96
4.69
5.18
5.55
5.94
6.39
6.81
7.05
6.95
6.42
5.52
4.44
3.43
2.69
2.29
2.15
2.10
1.92
1.48
0.77
-0.12
-1.07
-1.96
-2.74
-3.41
-3.99
-4.54
-5.09
-5.68
-6.30
-6.91
-7.42
-7.75
-7.84
-7.64
-7.12
-6.29
-5.19
-3.84
-2.38
-0.95
0.30
1.25
1.84
2.13
2.20
2.18
2.14
2.09
1.97
1.68
1.14
0.35
-0.56
-1.44
-2.11
-2.50
-2.64
-2.68
-2.77
-3.07
-3.58
-4.24
-4.88
-5.38
-5.66
-5.73
-5.69
-5.67
-5.76
-5.95
-6.19
-6.38
-6.45
-6.35
-6.05
-5.54
-4.77
-3.75
-2.51
-1.15
0.25
1.62
2.96
4.28
5.56
6.76
7.81
8.69
9.42
10.07
10.73
11.40
12.05
12.60
13.09
13.61
14.32
15.38
16.85
18.66
20.58
22.37
23.79
24.71
25.18
25.37
25.59
26.19
27.43
29.42
32.06
35.07
38.13
41.01
43.58
45.88
47.94
49.80
51.42
52.69
53.48
53.64
53.07
51.76
49.90
47.94
46.61
46.60
48.31
51.47
55.12
57.80
58.10
55.11
48.69
39.50
28.75
17.89
8.32
1.11
-3.19
-4.68
-4.12
-2.74
-1.89
-2.54
-4.89
-8.21
-11.00
-11.52
-8.28
-0.51
11.44
25.98
40.33
51.14
55.46
51.84
40.95
25.50
9.26
-4.26
-12.87
-16.02
-14.46
-9.56
-2.78
4.47
10.77
14.69
15.06
11.42
4.25
-5.18
-15.37
-25.05
-33.42
-40.09
-44.94
-47.91
-49.03
-48.54
-46.85
-44.48
-41.88
-39.37
-37.10
-35.16
-33.63
-32.62
-32.20
-32.36
-33.05
-34.16
-35.60
-37.29
-39.12
-41.00
-42.89
-44.79
-46.76
-48.84
-50.96
-52.88
-54.35
-55.13
-55.22
-54.83
-54.34
-54.16
-54.65
-56.03
-58.34
-61.36
-64.61
-67.45
-69.20
-69.44
-68.11
-65.52
-62.15
-58.47
-54.79
-51.25
-47.86
-44.58
-41.32
-37.89
-34.02
-29.47
-24.09
-17.92
-11.19
-4.20
2.74
9.38
15.43
20.67
24.86
27.90
29.87
30.94
31.36
31.27
30.68
29.54
27.78
25.45
22.66
19.64
16.58
13.61
10.80
8.15
5.69
3.45
1.47
-0.24
-1.73
-3.13
-4.56
-6.12
-7.78
-9.37
-10.66
-11.39
-11.47
-10.98
-10.15
-9.24
-8.42
-7.74
-7.18
-6.67
-6.25
-5.93
-5.69
-5.45
-5.04
-4.36
-3.42
-2.42
-1.61
-1.16
-1.11
-1.30
-1.56
-1.75
-1.88
-2.08
-2.48
-3.08
-3.79
-4.45
-4.91
-5.12
-5.08
-4.87
-4.51
-3.99
-3.24
-2.23
-0.91
0.66
2.40
4.10
5.52
6.44
6.75
6.53
6.00
5.47
5.10
4.90
4.75
4.48
4.03
3.46
2.92
2.53
2.28
2.07
1.76
1.31
0.73
0.12
-0.46
-0.98
-1.49
-2.01
-2.55
-3.03
-3.36
-3.46
-3.34
-3.09
-2.86
-2.78
-2.89
-3.16
-3.48
-3.71
-3.74
-3.50
-2.95
-2.10
-0.99
0.29
1.65
2.92
3.94
4.59
4.79
4.55
3.98
3.24
2.48
1.82
1.26
0.80
0.41
0.11
-0.01
0.11
0.45
0.89
1.24
1.36
1.22
0.92
0.62
0.44
0.40
0.44
0.44
0.34
0.14
-0.15
-0.56
-1.11
-1.81
-2.61
-3.35
-3.81
-3.82
-3.31
-2.36
-1.20
-0.08
0.78
1.27
1.46
1.50
1.60
1.92
2.47
3.15
3.74
4.03
3.92
3.47
2.89
2.43
2.26
2.37
2.62
2.83
2.85
2.65
2.27
1.78
1.21
0.54
-0.24
-1.11
-1.99
-2.75
-3.33
-3.70
-3.89
-3.98
-4.01
-4.04
-4.10
-4.23
-4.43
-4.64
-4.82
-4.94
-5.01
-5.07
-5.08
-4.94
-4.44
-3.42
-1.83
0.19
2.37
4.40
6.05
7.19
7.82
7.96
7.67
7.00
6.05
4.98
3.97
3.21
2.83
2.84
3.20
3.76
4.35
4.81
5.00
4.91
4.58
4.12
3.65
3.23
2.85
2.41
1.85
1.16
0.36
-0.47
-1.31
-2.17
-3.07
-3.98
-4.83
-5.51
-5.98
-6.30
-6.57
-6.87
-7.18
-7.32
-7.08
-6.33
-5.11
-3.62
-2.15
-0.90
0.06
0.76
1.28
1.69
2.00
2.20
2.31
2.35
2.39
2.47
2.62
2.83
3.06
3.28
3.43
3.48
3.42
3.28
3.09
2.87
2.58
2.10
1.34
0.33
-0.82
-1.88
-2.69
-3.21
-3.55
-3.91
-4.46
-5.27
-6.27
-7.30
-8.25
-9.01
-9.57
-9.86
-9.79
-9.25
-8.16
-6.58
-4.69
-2.79
-1.20
-0.11
0.41
0.44
0.19
-0.12
-0.31
-0.30
-0.08
0.29
0.72
1.15
1.58
1.98
2.36
2.68
2.87
2.88
2.70
2.37
1.97
1.58
1.25
1.00
0.87
0.88
1.05
1.31
1.52
1.51
1.13
0.39
-0.57
-1.48
-2.08
-2.23
-1.93
-1.25
-0.26
1.01
2.57
4.38
6.35
8.29
10.03
11.40
12.32
12.73
12.64
12.13
11.33
10.48
9.80
9.47
9.52
9.82
10.18
10.41
10.45
10.32
10.11
9.84
9.53
9.12
8.61
8.04
7.52
7.16
6.98
6.95
6.91
6.72
6.27
5.55
4.64
3.69
2.92
2.56
2.82
3.83
5.60
7.96
10.63
13.27
15.57
17.34
18.45
18.86
18.56
17.62
16.12
14.23
12.13
10.02
8.09
6.45
5.12
4.03
3.03
1.91
0.52
-1.16
-3.02
-4.86
-6.42
-7.55
-8.22
-8.57
-8.77
-9.02
-9.40
-9.95
-10.67
-11.53
-12.57
-13.74
-14.98
-16.12
-16.92
-17.15
-16.66
-15.46
-13.69
-11.57
-9.33
-7.20
-5.41
-4.20
-3.76
-4.13
-5.16
-6.52
-7.78
-8.65
-9.08
-9.26
-9.51
-10.04
-10.81
-11.56
-11.92
-11.68
-10.88
-9.82
-8.84
-8.14
-7.74
-7.48
-7.20
-6.91
-6.82
-7.21
-8.34
-10.20
-12.51
-14.73
-16.30
-16.73
-15.81
-13.60
-10.43
-6.77
-3.08
0.28
3.15
5.47
7.31
8.75
9.82
10.60
11.14
11.57
11.98
12.42
12.87
13.27
13.54
13.68
13.67
13.53
13.20
12.56
11.50
9.98
8.17
6.30
4.63
3.26
2.09
0.85
-0.76
-2.91
-5.57
-8.52
-11.43
-13.97
-15.90
-17.06
-17.31
-16.57
-14.80
-12.10
-8.73
-5.07
-1.54
1.55
4.08
6.09
7.73
9.12
10.27
11.15
11.68
11.84
11.72
11.47
11.24
11.12
11.09
11.08
11.00
10.75
10.30
9.65
8.81
7.75
6.44
4.88
3.11
1.26
-0.49
-2.03
-3.33
-4.46
-5.58
-6.87
-8.39
-10.08
-11.72
-12.97
-13.51
-13.10
-11.68
-9.40
-6.50
-3.28
0.04
3.32
6.46
9.37
11.98
14.21
16.06
17.57
18.79
19.75
20.44
20.87
21.11
21.33
21.70
22.36
23.24
24.10
24.58
24.38
23.41
21.78
19.77
17.66
15.62
13.70
11.82
9.92
8.00
6.08
4.24
2.43
0.60
-1.32
-3.26
-4.99
-6.16
-6.46
-5.75
-4.15
-2.01
0.23
2.22
3.77
4.92
5.78
6.39
6.73
6.70
6.25
5.46
4.54
3.74
3.25
3.07
3.01
2.83
2.36
1.59
0.67
-0.18
-0.78
-1.11
-1.28
-1.47
-1.83
-2.44
-3.25
-4.16
-5.05
-5.85
-6.54
-7.10
-7.55
-7.91
-8.20
-8.50
-8.86
-9.28
-9.67
-9.80
-9.37
-8.13
-6.01
-3.21
-0.09
2.94
5.63
7.92
9.85
11.46
12.62
13.14
12.85
11.78
10.24
8.69
7.54
6.96
6.88
7.01
7.08
6.91
6.51
5.99
5.50
5.15
4.95
4.81
4.59
4.16
3.50
2.72
1.98
1.37
0.84
0.24
-0.62
-1.79
-3.21
-4.74
-6.27
-7.79
-9.32
-10.79
-11.92
-12.31
-11.56
-9.54
-6.49
-2.98
0.36
3.08
5.05
6.40
7.38
8.19
8.88
9.39
9.60
9.54
9.29
9.00
8.82
8.76
8.70
8.48
8.00
7.30
6.55
5.91
5.45
5.07
4.58
3.80
2.68
1.34
0.00
-1.18
-2.16
-3.03
-3.86
-4.68
-5.36
-5.83
-6.07
-6.22
-6.52
-7.18
-8.26
-9.71
-11.37
-13.00
-14.36
-15.15
-15.14
-14.16
-12.21
-9.49
-6.30
-2.99
0.20
3.07
5.53
7.48
8.88
9.71
10.11
10.21
10.18
10.08
9.88
9.52
9.01
8.46
8.03
7.83
7.85
7.90
7.77
7.26
6.38
5.27
4.17
3.26
2.61
2.14
1.72
1.25
0.69
0.13
-0.26
-0.36
-0.13
0.34
0.86
1.24
1.40
1.34
1.15
0.87
0.44
-0.21
-1.20
-2.53
-4.09
-5.62
-6.83
-7.50
-7.50
-6.82
-5.53
-3.79
-1.82
0.08
1.67
2.85
3.70
4.47
5.43
6.72
8.27
9.86
11.27
12.36
13.16
13.84
14.54
15.24
15.79
15.99
15.67
14.80
13.44
11.69
9.64
7.36
4.95
2.57
0.36
-1.51
-2.96
-3.93
-4.49
-4.66
-4.52
-4.09
-3.46
-2.73
-2.03
-1.45
-1.10
-1.14
-1.82
-3.42
-6.12
-9.87
-14.27
-18.69
-22.41
-24.89
-25.90
-25.58
-24.26
-22.29
-19.90
-17.17
-14.07
-10.62
-6.96
-3.37
-0.23
2.13
3.58
4.24
4.36
4.23
3.99
3.72
3.52
3.63
4.35
5.82
7.73
9.46
10.22
9.52
7.38
4.30
1.04
-1.82
-4.02
-5.62
-6.77
-7.53
-7.81
-7.49
-6.54
-5.20
-3.87
-2.99
-2.86
-3.50
-4.67
-5.95
-6.95
-7.51
-7.79
-8.12
-8.81
-9.94
-11.31
-12.56
-13.32
-13.39
-12.75
-11.54
-9.99
-8.33
-6.77
-5.47
-4.49
-3.76
-3.17
-2.60
-2.00
-1.43
-0.95
-0.64
-0.46
-0.39
-0.43
-0.70
-1.36
-2.48
-3.97
-5.51
-6.73
-7.33
-7.27
-6.72
-6.00
-5.41
-5.11
-5.10
-5.29
-5.58
-5.93
-6.28
-6.60
-6.84
-6.94
-6.88
-6.68
-6.34
-5.89
-5.37
-4.84
-4.44
-4.33
-4.67
-5.49
-6.61
-7.69
-8.33
-8.20
-7.23
-5.61
-3.66
-1.71
0.05
1.56
2.85
3.91
4.73
5.29
5.63
5.84
6.02
6.18
6.26
6.19
5.92
5.49
4.97
4.45
3.95
3.45
2.97
2.56
2.35
2.35
2.49
2.60
2.48
2.05
1.38
0.64
-0.02
-0.59
-1.18
-1.91
-2.76
-3.56
-4.09
-4.25
-4.14
-4.00
-4.09
-4.57
-5.43
-6.50
-7.55
-8.33
-8.65
-8.38
-7.46
-5.95
-4.02
-1.95
-0.04
1.47
2.42
2.78
2.61
1.99
1.07
0.05
-0.82
-1.36
-1.50
-1.30
-0.89
-0.43
-0.01
0.31
0.52
0.65
0.75
0.90
1.14
1.48
1.89
2.27
2.54
2.62
2.47
2.14
1.65
1.03
0.26
-0.65
-1.65
-2.63
-3.45
-4.04
-4.47
-4.89
-5.48
-6.35
-7.42
-8.48
-9.25
-9.49
-9.14
-8.30
-7.14
-5.82
-4.42
-2.91
-1.27
0.49
2.27
3.87
5.18
6.09
6.63
6.86
6.85
6.68
6.41
6.11
5.88
5.74
5.64
5.50
5.37
5.35
5.61
6.18
6.86
7.34
7.29
6.62
5.49
4.24
3.20
2.54
2.21
2.06
1.92
1.76
1.58
1.36
1.02
0.42
-0.51
-1.70
-2.89
-3.85
-4.41
-4.61
-4.60
-4.56
-4.53
-4.36
-3.86
-2.88
-1.48
0.03
1.26
1.94
2.06
1.87
1.69
1.71
1.93
2.21
2.44
2.58
2.67
2.78
2.95
3.18
3.46
3.77
4.10
4.42
4.73
4.98
5.19
5.37
5.55
5.73
5.86
5.87
5.73
5.46
5.13
4.73
4.23
3.55
2.61
1.43
0.09
-1.29
-2.62
-3.80
-4.72
-5.29
-5.45
-5.31
-5.05
-4.97
-5.20
-5.71
-6.21
-6.38
-5.98
-5.01
-3.66
-2.20
-0.81
0.42
1.50
2.44
3.20
3.74
4.07
4.30
4.57
4.98
5.52
6.08
6.55
6.92
7.26
7.70
8.30
8.97
9.53
9.77
9.51
8.77
7.65
6.36
5.02
3.71
2.41
1.07
-0.26
-1.50
-2.53
-3.31
-3.94
-4.60
-5.51
-6.75
-8.26
-9.80
-11.15
-12.22
-13.03
-13.68
-14.22
-14.49
-14.23
-13.15
-11.14
-8.36
-5.20
-2.06
0.76
3.23
5.44
7.48
9.27
10.61
11.27
11.21
10.59
9.75
9.03
8.61
8.40
8.20
7.80
7.16
6.40
5.73
5.28
5.02
4.84
4.61
4.27
3.84
3.43
3.08
2.73
2.27
1.56
0.59
-0.51
-1.62
-2.65
-3.64
-4.70
-5.91
-7.23
-8.56
-9.76
-10.70
-11.33
-11.62
-11.49
-10.82
-9.49
-7.49
-4.96
-2.16
0.64
3.22
5.43
7.21
8.54
9.42
9.87
9.97
9.85
9.68
9.58
9.59
9.66
9.65
9.44
8.94
8.16
7.19
6.10
4.99
3.90
2.85
1.87
1.00
0.29
-0.25
-0.59
-0.75
-0.77
-0.73
-0.72
-0.87
-1.23
-1.76
-2.32
-2.72
-2.81
-2.61
-2.22
-1.76
-1.27
-0.68
0.18
1.47
3.29
5.68
8.62
11.93
15.22
17.90
19.42
19.44
18.05
15.71
13.10
10.77
9.08
8.12
7.83
8.04
8.48
8.80
8.64
7.84
6.60
5.40
4.73
4.61
4.54
3.64
1.24
-2.68
-7.39
-11.78
-14.97
-16.75
-17.60
-18.22
-19.09
-20.19
-21.03
-21.09
-20.16
-18.51
-16.73
-15.37
-14.67
-14.39
-14.00
-12.92
-10.81
-7.75
-4.18
-0.57
2.73
5.65
8.36
10.97
13.34
15.07
15.72
15.11
13.50
11.46
9.64
8.32
7.38
6.38
5.02
3.36
1.83
0.96
0.95
1.51
1.99
1.74
0.51
-1.52
-3.78
-5.73
-7.13
-8.07
-8.88
-9.80
-10.84
-11.75
-12.17
-11.90
-11.06
-10.05
-9.37
-9.35
-9.98
-10.86
-11.39
-11.01
-9.46
-6.77
-3.24
0.74
4.81
8.63
11.84
14.08
15.09
14.86
13.74
12.33
11.18
10.58
10.38
10.14
9.43
8.07
6.19
4.13
2.26
0.79
-0.27
-1.01
-1.54
-1.86
-1.91
-1.61
-0.99
-0.21
0.47
0.84
0.83
0.56
0.23
0.02
-0.00
0.06
0.01
-0.26
-0.66
-1.04
-1.28
-1.44
-1.81
-2.65
-3.96
-5.35
-6.19
-5.93
-4.47
-2.25
-0.01
1.55
2.10
1.83
1.19
0.64
0.42
0.51
0.79
1.15
1.64
2.32
3.31
4.63
6.18
7.69
8.85
9.41
9.30
8.69
7.89
7.16
6.57
5.91
4.87
3.30
1.32
-0.71
-2.48
-3.92
-5.25
-6.80
-8.74
-10.93
-13.05
-14.79
-16.01
-16.76
-17.04
-16.78
-15.75
-13.80
-10.94
-7.44
-3.63
0.16
3.73
6.95
9.74
12.04
13.84
15.20
16.17
16.75
16.83
16.32
15.26
13.98
12.91
12.38
12.30
12.10
11.12
8.95
5.80
2.35
-0.67
-2.92
-4.60
-6.23
-8.24
-10.63
-13.03
-14.93
-16.01
-16.32
-16.17
-15.89
-15.59
-15.23
-14.65
-13.76
-12.61
-11.38
-10.31
-9.61
-9.39
-9.51
-9.66
-9.40
-8.34
-6.40
-3.77
-0.86
1.97
4.52
6.76
8.71
10.29
11.31
11.61
11.22
10.44
9.71
9.28
9.14
8.97
8.47
7.54
6.43
5.53
5.08
4.99
4.91
4.44
3.39
1.91
0.30
-1.11
-2.15
-2.88
-3.43
-3.92
-4.40
-4.84
-5.21
-5.48
-5.67
-5.87
-6.17
-6.70
-7.53
-8.58
-9.60
-10.32
-10.60
-10.56
-10.46
-10.53
-10.70
-10.63
-9.95
-8.51
-6.58
-4.66
-3.26
-2.48
-2.04
-1.43
-0.31
1.28
2.92
4.10
4.57
4.47
4.22
4.34
5.06
6.31
7.75
8.97
9.71
9.95
9.89
9.80
9.84
9.94
9.83
9.17
7.80
5.84
3.71
1.90
0.74
0.25
0.11
-0.10
-0.64
-1.55
-2.64
-3.76
-4.93
-6.37
-8.26
-10.47
-12.52
-13.72
-13.62
-12.24
-10.19
-8.24
-7.00
-6.50
-6.30
-5.77
-4.46
-2.35
0.20
2.72
4.84
6.46
7.73
8.87
10.00
11.06
11.82
12.14
12.04
11.77
11.66
12.00
12.75
13.61
14.11
13.90
12.95
11.53
10.02
8.58
7.16
5.55
3.76
2.12
1.16
1.21
2.03
2.76
2.33
0.02
-4.08
-9.15
-14.06
-17.96
-20.60
-22.23
-23.27
-23.87
-23.83
-22.76
-20.45
-17.01
-13.01
-9.19
-6.11
-3.94
-2.40
-1.01
0.57
2.34
3.90
4.76
4.64
3.75
2.74
2.26
2.61
3.53
4.38
4.58
3.95
2.85
1.81
1.23
1.11
1.13
0.94
0.48
0.01
-0.09
0.44
1.45
2.52
3.15
3.12
2.53
1.73
1.14
1.05
1.47
2.15
2.70
2.71
1.98
0.53
-1.35
-3.28
-4.98
-6.36
-7.44
-8.26
-8.65
-8.32
-7.02
-4.81
-2.16
0.25
1.87
2.63
2.91
3.19
3.75
4.43
4.78
4.47
3.56
2.47
1.74
1.69
2.31
3.30
4.34
5.21
5.89
6.44
6.95
7.48
7.97
8.23
7.97
6.94
5.10
2.66
0.09
-2.10
-3.62
-4.52
-5.11
-5.68
-6.25
-6.55
-6.30
-5.53
-4.70
-4.46
-5.26
-7.00
-9.07
-10.69
-11.37
-11.15
-10.37
-9.43
-8.45
-7.25
-5.53
-3.22
-0.53
2.12
4.39
6.16
7.57
8.89
10.29
11.67
12.74
13.10
12.49
10.87
8.49
5.84
3.50
1.88
1.09
0.94
1.03
1.10
1.12
1.30
1.84
2.66
3.40
3.56
2.85
1.39
-0.35
-1.79
-2.62
-2.94
-3.13
-3.53
-4.21
-4.97
-5.49
-5.64
-5.54
-5.48
-5.71
-6.27
-7.00
-7.75
-8.45
-9.21
-10.19
-11.45
-12.84
-13.96
-14.42
-13.89
-12.34
-9.94
-7.10
-4.24
-1.76
0.17
1.55
2.52
3.28
3.94
4.59
5.28
6.10
7.16
8.53
10.12
11.68
12.92
13.61
13.75
13.53
13.25
13.15
13.27
13.49
13.62
13.55
13.27
12.84
12.29
11.61
10.72
9.56
8.14
6.50
4.75
3.01
1.54
0.57
0.26
0.53
0.94
0.92
0.02
-1.77
-3.89
-5.52
-6.03
-5.35
-4.01
-2.78
-2.16
-2.11
-2.16
-1.76
-0.79
0.41
1.31
1.54
1.19
0.67
0.45
0.68
1.18
1.61
1.78
1.87
2.40
3.95
6.96
11.52
17.38
24.06
30.98
37.58
43.33
47.73
50.26
50.44
48.03
43.15
36.35
28.51
20.49
12.76
5.18
-2.83
-11.86
-21.93
-32.22
-41.31
-47.79
-50.96
-51.07
-49.10
-46.20
-43.14
-40.10
-36.92
-33.38
-29.55
-25.77
-22.54
-20.24
-18.91
-18.26
-17.79
-17.06
-15.85
-14.27
-12.69
-11.45
-10.73
-10.44
-10.30
-10.04
-9.59
-9.08
-8.73
-8.61
-8.58
-8.44
-8.08
-7.62
-7.29
-7.27
-7.46
-7.54
-7.08
-5.88
-4.08
-2.18
-0.80
-0.40
-1.13
-2.82
-5.11
-7.59
-10.01
-12.24
-14.24
-15.93
-17.16
-17.63
-16.99
-14.99
-11.72
-7.69
-3.68
-0.44
1.66
2.72
3.24
3.74
4.45
5.16
5.51
5.30
4.72
4.24
4.31
5.04
6.10
6.98
7.36
7.34
7.30
7.58
8.12
8.45
8.06
6.74
4.77
2.80
1.43
0.90
1.04
1.42
1.58
1.27
0.41
-0.88
-2.34
-3.69
-4.72
-5.44
-6.09
-6.96
-8.18
-9.61
-10.80
-11.30
-10.94
-9.88
-8.50
-7.05
-5.53
-3.76
-1.70
0.37
1.99
2.75
2.65
2.16
1.98
2.72
4.52
7.08
9.79
12.11
13.76
14.82
15.73
17.18
19.81
24.03
29.71
36.02
41.54
44.75
44.72
41.61
36.60
31.48
28.00
27.31
29.88
35.53
43.59
52.79
61.32
67.07
68.31
64.60
57.25
49.07
43.25
42.09
46.34
55.32
67.76
82.58
99.10
116.61
133.75
148.29
157.61
159.57
153.37
139.90
121.45
100.91
80.89
63.10
48.10
35.62
24.93
15.30
6.23
-2.53
-11.05
-19.45
-27.87
-36.50
-45.36
-54.20
-62.27
-68.50
-71.72
-71.08
-66.49
-58.78
-49.85
-42.34
-38.93
-41.56
-50.63
-64.74
-80.90
-95.48
-105.19
-108.11
-104.05
-94.32
-80.99
-66.07
-50.98
-36.55
-23.35
-12.07
-3.59
1.14
1.66
-1.75
-8.09
-15.90
-23.75
-30.62
-35.85
-39.05
-39.83
-37.86
-33.13
-26.31
-18.79
-12.39
-8.76
-8.75
-11.97
-16.80
-20.71
-20.98
-15.52
-3.45
14.65
36.81
60.23
81.90
99.16
110.03
113.44
109.25
98.27
82.05
62.60
41.85
21.20
1.14
-18.60
-38.56
-58.88
-78.72
-96.13
-108.47
-113.08
-108.32
-94.25
-72.91
-47.84
-23.13
-2.27
12.63
21.11
23.97
22.88
19.99
17.71
18.41
23.98
35.21
51.40
70.35
88.98
104.25
113.82
116.44
111.82
100.28
82.48
59.34
32.06
2.13
-28.85
-59.37
-88.02
-113.36
-133.68
-147.11
-152.15
-148.49
-137.51
-122.16
-106.01
-92.00
-81.43
-73.89
-67.88
-61.85
-54.82
-46.52
-36.85
-25.35
-11.06
7.04
29.26
54.57
80.39
103.02
118.41
123.26
115.84
96.56
67.78
33.11
-3.73
-39.99
-74.39
-107.04
-138.62
-169.40
-198.56
-224.14
-243.81
-255.89
-259.95
-256.80
-247.75
-233.95
-216.04
-194.74
-171.40
-148.20
-127.51
-110.67
-97.20
-84.85
-70.84
-53.38
-32.76
-11.10
8.71
24.54
35.79
43.23
48.17
51.41
52.72
51.06
45.38
35.64
23.33
11.30
2.93
0.88
5.97
16.75
29.94
41.66
48.90
50.52
47.52
42.18
36.84
32.78
29.80
26.69
22.19
15.85
8.20
0.35
-6.93
-13.67
-20.62
-28.57
-37.53
-46.48
-53.65
-57.40
-57.03
-53.16
-47.43
-41.75
-37.56
-35.30
-34.42
-33.73
-31.98
-28.33
-22.58
-15.12
-6.66
2.07
10.60
18.68
26.27
33.37
39.92
45.73
50.49
53.84
55.49
55.30
53.37
50.06
45.94
41.68
37.85
34.84
32.72
31.34
30.43
29.67
28.81
27.67
26.13
24.14
21.70
18.90
15.92
13.03
10.53
8.64
7.36
6.46
5.52
4.11
2.02
-0.56
-3.00
-4.46
-4.23
-1.96
2.16
7.54
13.41
19.13
24.30
28.81
32.70
36.03
38.75
40.75
41.91
42.26
41.96
41.32
40.67
40.22
40.01
39.88
39.62
39.05
38.16
37.03
35.83
34.60
33.27
31.75
29.93
27.87
25.72
23.70
21.89
20.17
18.29
15.93
12.83
8.89
4.24
-0.80
-5.68
-9.73
-12.25
-12.74
-11.01
-7.33
-2.23
3.63
9.67
15.51
20.88
25.52
29.08
31.22
31.74
30.73
28.66
26.22
24.08
22.72
22.24
22.44
22.94
23.40
23.61
23.51
23.14
22.47
21.40
19.72
17.32
14.25
10.78
7.33
4.31
1.88
-0.05
-1.83
-3.87
-6.52
-9.91
-13.95
-18.37
-22.65
-26.17
-28.25
-28.37
-26.30
-22.25
-16.78
-10.62
-4.47
1.19
6.17
10.52
14.39
17.92
21.15
24.00
26.34
28.09
29.25
29.91
30.23
30.35
30.33
30.15
29.73
29.02
28.05
26.90
25.66
24.29
22.68
20.66
18.12
15.08
11.70
8.26
5.02
2.14
-0.38
-2.72
-5.16
-7.97
-11.23
-14.79
-18.23
-20.93
-22.24
-21.69
-19.16
-14.91
-9.52
-3.69
1.96
6.98
11.10
14.20
16.24
17.27
17.45
17.02
16.31
15.60
15.08
14.83
14.78
14.83
14.86
14.79
14.53
14.02
13.24
12.12
10.67
8.87
6.76
4.40
1.90
-0.59
-2.91
-4.98
-6.82
-8.54
-10.27
-12.08
-13.93
-15.69
-17.17
-18.15
-18.42
-17.80
-16.07
-13.10
-8.87
-3.57
2.42
8.65
14.64
20.10
24.89
28.98
32.39
35.08
36.99
38.05
38.28
37.82
36.95
35.99
35.22
34.80
34.70
34.64
34.22
33.00
30.67
27.16
22.62
17.44
12.05
6.84
2.09
-1.98
-5.26
-7.64
-9.08
-9.68
-9.72
-9.57
-9.65
-10.34
-11.80
-14.01
-16.74
-19.62
-22.17
-23.87
-24.23
-22.92
-19.87
-15.33
-9.91
-4.39
0.50
4.28
6.77
8.07
8.44
8.16
7.44
6.44
5.29
4.14
3.19
2.65
2.67
3.30
4.40
5.73
6.95
7.80
8.18
8.16
7.99
7.87
7.92
8.08
8.19
8.07
7.63
6.84
5.80
4.70
3.71
2.94
2.42
2.03
1.60
1.02
0.28
-0.52
-1.28
-1.95
-2.50
-2.92
-3.09
-2.84
-2.00
-0.58
1.19
2.93
4.23
4.82
4.67
3.86
2.59
1.02
-0.69
-2.38
-3.88
-5.00
-5.61
-5.62
-5.06
-4.04
-2.75
-1.42
-0.26
0.59
1.11
1.36
1.44
1.38
1.18
0.74
0.05
-0.83
-1.75
-2.50
-2.99
-3.16
-3.06
-2.70
-2.05
-1.10
0.04
1.03
1.36
0.50
-1.86
-5.59
-10.10
-14.56
-18.11
-20.20
-20.66
-19.69
-17.63
-14.81
-11.49
-7.88
-4.20
-0.76
2.10
4.10
5.13
5.29
4.86
4.18
3.52
3.05
2.85
2.95
3.32
3.91
4.63
5.37
6.01
6.45
6.64
6.55
6.20
5.62
4.82
3.84
2.70
1.44
0.12
-1.23
-2.58
-3.92
-5.22
-6.49
-7.75
-9.05
-10.43
-11.88
-13.35
-14.65
-15.52
-15.68
-14.93
-13.22
-10.74
-7.84
-4.92
-2.31
-0.17
1.50
2.82
3.96
5.01
5.94
6.66
7.02
6.91
6.32
5.36
4.26
3.26
2.56
2.21
2.13
2.19
2.21
2.10
1.84
1.42
0.86
0.17
-0.67
-1.62
-2.61
-3.57
-4.44
-5.21
-5.92
-6.63
-7.39
-8.21
-9.10
-10.07
-11.14
-12.38
-13.83
-15.51
-17.33
-19.08
-20.44
-21.06
-20.61
-18.97
-16.29
-12.90
-9.24
-5.72
-2.56
0.13
2.36
4.08
5.23
5.78
5.80
5.46
5.06
4.82
4.88
5.22
5.76
6.38
6.97
7.43
7.70
7.74
7.64
7.48
7.37
7.28
7.12
6.74
6.05
5.10
4.05
3.02
2.02
0.95
-0.32
-1.83
-3.48
-5.09
-6.51
-7.76
-8.98
-10.37
-11.99
-13.73
-15.28
-16.27
-16.38
-15.47
-13.60
-10.97
-7.83
-4.51
-1.23
1.78
4.39
6.45
7.88
8.64
8.71
8.15
7.09
5.73
4.35
3.24
2.65
2.69
3.24
4.05
4.76
5.09
4.91
4.25
3.29
2.23
1.25
0.39
-0.35
-1.04
-1.74
-2.53
-3.44
-4.51
-5.73
-7.02
-8.24
-9.22
-9.81
-10.01
-9.94
-9.83
-9.88
-10.17
-10.59
-10.85
-10.63
-9.66
-7.86
-5.30
-2.24
1.07
4.35
7.39
10.03
12.16
13.65
14.44
14.50
13.90
12.77
11.33
9.78
8.31
7.05
6.06
5.37
4.97
4.82
4.83
4.88
4.85
4.69
4.40
4.03
3.62
3.15
2.56
1.75
0.72
-0.47
-1.72
-2.89
-3.93
-4.86
-5.74
-6.66
-7.63
-8.66
-9.71
-10.74
-11.70
-12.47
-12.89
-12.75
-11.86
-10.14
-7.65
-4.59
-1.26
2.03
5.04
7.62
9.67
11.15
12.06
12.43
12.33
11.85
11.16
10.40
9.71
9.19
8.86
8.66
8.48
8.16
7.63
6.86
5.94
4.97
4.09
3.32
2.66
2.04
1.38
0.66
-0.15
-1.03
-1.98
-3.00
-4.09
-5.22
-6.37
-7.52
-8.71
-9.98
-11.38
-12.90
-14.47
-15.92
-16.97
-17.35
-16.82
-15.23
-12.63
-9.25
-5.45
-1.67
1.75
4.56
6.69
8.19
9.14
9.63
9.69
9.35
8.72
7.95
7.24
6.76
6.58
6.66
6.85
7.00
6.98
6.73
6.25
5.58
4.75
3.87
3.01
2.24
1.56
0.86
-0.03
-1.25
-2.80
-4.58
-6.35
-7.90
-9.13
-10.09
-10.91
-11.73
-12.63
-13.59
-14.51
-15.17
-15.35
-14.82
-13.47
-11.38
-8.74
-5.85
-2.97
-0.25
2.24
4.46
6.33
7.71
8.47
8.59
8.15
7.37
6.44
5.52
4.71
4.06
3.63
3.46
3.55
3.83
4.18
4.50
4.74
4.92
5.10
5.31
5.49
5.54
5.34
4.86
4.14
3.34
2.55
1.80
1.03
0.15
-0.88
-2.04
-3.27
-4.58
-6.05
-7.77
-9.72
-11.70
-13.32
-14.13
-13.81
-12.26
-9.63
-6.23
-2.43
1.34
4.72
7.39
9.16
10.06
10.28
10.15
10.00
9.98
10.06
10.09
9.86
9.23
8.17
6.70
4.89
2.85
0.71
-1.42
-3.44
-5.29
-6.96
-8.44
-9.75
-10.86
-11.71
-12.22
-12.32
-11.95
-11.13
-9.92
-8.46
-6.89
-5.41
-4.21
-3.44
-3.15
-3.24
-3.49
-3.60
-3.32
-2.49
-1.08
0.77
2.88
5.00
6.91
8.36
9.14
9.13
8.27
6.71
4.70
2.53
0.48
-1.29
-2.73
-3.79
-4.43
-4.56
-4.12
-3.09
-1.55
0.31
2.31
4.30
6.16
7.85
9.30
10.43
11.16
11.45
11.29
10.74
9.94
9.04
8.22
7.62
7.28
7.07
6.68
5.78
4.12
1.65
-1.43
-4.75
-7.92
-10.69
-12.95
-14.70
-15.96
-16.69
-16.83
-16.34
-15.22
-13.57
-11.59
-9.45
-7.35
-5.45
-3.88
-2.68
-1.82
-1.21
-0.70
-0.17
0.44
1.15
1.89
2.57
3.14
3.51
3.65
3.56
3.23
2.70
1.98
1.08
0.01
-1.22
-2.57
-3.92
-5.11
-6.02
-6.58
-6.81
-6.82
-6.73
-6.69
-6.82
-7.18
-7.74
-8.38
-8.86
-8.89
-8.22
-6.72
-4.47
-1.73
1.20
4.06
6.68
9.03
11.09
12.82
14.12
14.88
15.04
14.62
13.75
12.57
11.27
10.00
8.87
8.00
7.46
7.29
7.45
7.80
8.11
8.12
7.55
6.22
4.04
1.10
-2.35
-5.97
-9.39
-12.37
-14.86
-16.92
-18.72
-20.33
-21.73
-22.76
-23.23
-23.01
-22.06
-20.46
-18.28
-15.56
-12.30
-8.41
-3.90
1.14
6.49
11.83
16.84
21.23
24.89
27.86
30.38
32.81
35.53
38.79
42.66
46.90
51.11
54.85
57.85
60.27
62.64
65.77
70.49
77.28
86.05
95.98
105.58
112.94
116.18
114.03
106.26
93.87
78.84
63.42
49.41
37.61
27.86
19.53
12.15
5.81
1.17
-1.00
-0.28
3.12
8.48
14.72
20.80
25.81
29.02
29.89
28.10
23.63
16.83
8.36
-1.00
-10.54
-19.72
-28.19
-35.74
-42.13
-47.13
-50.55
-52.36
-52.72
-51.93
-50.24
-47.82
-44.75
-41.26
-37.83
-35.10
-33.49
-32.78
-31.93
-29.35
-23.60
-14.12
-1.60
12.33
25.88
37.82
47.85
56.31
63.57
69.57
73.73
75.34
74.10
70.30
64.75
58.24
51.18
43.46
34.74
24.93
14.46
4.29
-4.54
-11.40
-16.34
-19.99
-23.19
-26.49
-29.91
-33.05
-35.45
-36.96
-37.86
-38.77
-40.33
-43.02
-46.98
-52.10
-58.00
-64.12
-69.68
-73.89
-76.13
-76.30
-74.87
-72.72
-70.71
-69.34
-68.66
-68.42
-68.33
-68.39
-68.81
-69.89
-71.83
-74.57
-77.85
-81.13
-83.65
-84.33
-82.08
-76.11
-66.55
-54.65
-42.62
-32.85
-26.88
-24.82
-25.29
-26.23
-25.94
-23.78
-20.25
-16.38
-12.98
-10.18
-7.64
-5.09
-2.79
-1.58
-2.30
-5.27
-9.85
-14.74
-18.60
-20.58
-20.57
-19.03
-16.51
-13.24
-9.18
-4.15
1.74
8.01
13.84
18.49
21.63
23.47
24.65
25.97
28.00
30.97
34.78
39.11
43.61
47.89
51.50
53.82
54.09
51.53
45.56
36.06
23.59
9.37
-4.84
-17.11
-25.82
-30.07
-29.94
-26.45
-21.24
-16.12
-12.53
-11.18
-12.00
-14.34
-17.29
-20.01
-21.93
-22.84
-22.76
-21.87
-20.36
-18.46
-16.44
-14.81
-14.28
-15.60
-19.19
-24.85
-31.59
-37.98
-42.71
-45.12
-45.33
-43.95
-41.49
-38.03
-33.33
-27.34
-20.69
-14.73
-10.84
-9.66
-10.67
-12.38
-13.22
-12.38
-10.18
-7.68
-5.97
-5.43
-5.46
-4.84
-2.22
3.32
12.02
23.43
36.51
49.86
62.02
71.70
78.03
80.64
79.67
75.59
69.10
61.02
52.15
43.29
35.06
27.82
21.49
15.60
9.40
2.23
-6.19
-15.47
-24.69
-32.72
-38.71
-42.39
-44.10
-44.56
-44.36
-43.78
-42.72
-40.99
-38.56
-35.73
-33.01
-30.85
-29.47
-28.79
-28.54
-28.45
-28.44
-28.59
-29.09
-30.02
-31.22
-32.24
-32.44
-31.27
-28.49
-24.29
-19.21
-13.90
-8.84
-4.22
0.01
3.93
7.48
10.44
12.55
13.64
13.80
13.19
12.09
10.70
9.14
7.46
5.64
3.70
1.69
-0.20
-1.73
-2.59
-2.51
-1.43
0.47
2.77
5.02
6.84
8.10
8.88
9.35
9.67
9.87
9.86
9.55
8.90
7.98
6.95
5.96
5.10
4.42
3.93
3.66
3.64
3.88
4.30
4.76
5.07
5.07
4.70
3.98
3.04
2.05
1.14
0.38
-0.29
-0.99
-1.93
-3.29
-5.09
-7.21
-9.34
-11.11
-12.22
-12.44
-11.72
-10.09
-7.66
-4.59
-1.10
2.53
5.97
8.92
11.19
12.72
13.58
13.92
13.95
13.84
13.68
13.54
13.37
13.15
12.87
12.56
12.29
12.16
12.17
12.25
12.24
11.92
11.17
9.95
8.35
6.52
4.62
2.77
0.98
-0.76
-2.58
-4.57
-6.83
-9.35
-12.01
-14.50
-16.41
-17.30
-16.87
-15.08
-12.13
-8.41
-4.32
-0.24
3.58
6.96
9.80
12.08
13.80
15.04
15.86
16.35
16.55
16.51
16.25
15.88
15.48
15.16
14.96
14.90
14.94
15.01
15.06
14.97
14.63
13.86
12.57
10.74
8.47
6.01
3.66
1.69
0.23
-0.79
-1.60
-2.49
-3.67
-5.12
-6.61
-7.79
-8.37
-8.17
-7.24
-5.74
-3.86
-1.74
0.49
2.70
4.65
6.09
6.82
6.83
6.25
5.37
4.46
3.69
3.12
2.72
2.49
2.45
2.63
3.01
3.47
3.85
3.96
3.71
3.10
2.22
1.18
0.11
-0.94
-1.96
-2.93
-3.82
-4.53
-5.01
-5.27
-5.44
-5.72
-6.24
-6.95
-7.58
-7.75
-7.14
-5.62
-3.36
-0.70
2.03
4.62
7.01
9.21
11.18
12.79
13.81
14.15
13.86
13.15
12.34
11.65
11.23
11.03
10.93
10.78
10.52
10.17
9.81
9.50
9.22
8.87
8.27
7.32
5.97
4.29
2.42
0.56
-1.08
-2.37
-3.31
-4.06
-4.92
-6.19
-8.03
-10.32
-12.68
-14.60
-15.63
-15.57
-14.49
-12.64
-10.33
-7.78
-5.13
-2.45
0.17
2.66
4.87
6.70
8.09
9.07
9.70
10.11
10.39
10.61
10.76
10.82
10.74
10.53
10.23
9.94
9.79
9.82
10.03
10.32
10.59
10.67
10.39
9.62
8.29
6.43
4.20
1.84
-0.43
-2.51
-4.38
-6.14
-7.91
-9.77
-11.64
-13.37
-14.65
-15.20
-14.82
-13.43
-11.15
-8.24
-5.04
-1.91
0.91
3.29
5.23
6.77
7.95
8.78
9.24
9.31
9.06
8.57
8.01
7.52
7.24
7.26
7.53
7.95
8.33
8.47
8.27
7.75
7.07
6.41
5.88
5.47
5.03
4.45
3.72
2.95
2.34
2.01
1.87
1.68
1.15
0.12
-1.35
-3.04
-4.63
-5.86
-6.57
-6.67
-6.12
-4.91
-3.11
-0.89
1.47
3.70
5.58
7.04
8.06
8.65
8.80
8.50
7.76
6.73
5.60
4.62
3.96
3.68
3.72
3.97
4.32
4.71
5.09
5.47
5.83
6.12
6.20
5.94
5.22
4.04
2.51
0.86
-0.67
-1.97
-3.10
-4.33
-5.99
-8.28
-11.19
-14.42
-17.50
-19.88
-21.17
-21.17
-19.90
-17.55
-14.38
-10.68
-6.77
-3.05
0.13
2.49
3.97
4.72
5.06
5.31
5.65
6.07
6.40
6.48
6.20
5.63
4.93
4.32
3.90
3.68
3.58
3.47
3.22
2.72
1.93
0.86
-0.46
-1.95
-3.53
-5.08
-6.51
-7.77
-8.88
-10.01
-11.36
-13.11
-15.27
-17.58
-19.58
-20.73
-20.65
-19.24
-16.71
-13.45
-9.86
-6.21
-2.67
0.63
3.52
5.79
7.28
7.99
8.11
7.87
7.48
6.97
6.24
5.15
3.69
1.99
0.30
-1.13
-2.20
-2.91
-3.37
-3.69
-3.98
-4.25
-4.57
-4.96
-5.48
-6.05
-6.53
-6.71
-6.43
-5.72
-4.84
-4.21
-4.18
-4.91
-6.18
-7.52
-8.39
-8.41
-7.49
-5.85
-3.85
-1.87
-0.11
1.36
2.54
3.44
4.06
4.40
4.52
4.56
4.69
5.02
5.52
6.12
6.69
7.17
7.55
7.89
8.23
8.59
8.94
9.25
9.48
9.59
9.50
9.09
8.29
7.09
5.60
3.95
2.25
0.51
-1.40
-3.64
-6.29
-9.32
-12.55
-15.65
-18.28
-20.12
-20.89
-20.46
-18.82
-16.14
-12.76
-9.14
-5.74
-2.88
-0.63
1.13
2.67
4.19
5.72
7.13
8.19
8.74
8.80
8.58
8.39
8.48
8.98
9.76
10.61
11.26
11.53
11.31
10.62
9.54
8.11
6.41
4.45
2.30
0.06
-2.17
-4.27
-6.19
-7.96
-9.66
-11.42
-13.28
-15.15
-16.77
-17.75
-17.69
-16.37
-13.77
-10.13
-5.86
-1.41
2.81
6.51
9.46
11.53
12.66
12.94
12.55
11.77
10.86
10.01
9.28
8.55
7.68
6.55
5.17
3.72
2.49
1.82
1.86
2.53
3.50
4.28
4.53
4.13
3.25
2.24
1.40
0.81
0.34
-0.24
-1.14
-2.41
-3.96
-5.64
-7.28
-8.73
-9.83
-10.32
-9.96
-8.62
-6.32
-3.34
-0.06
3.08
5.74
7.74
9.00
9.58
9.57
9.09
8.37
7.64
7.15
7.08
7.45
8.12
8.82
9.31
9.45
9.28
9.01
8.87
9.00
9.37
9.74
9.77
9.17
7.84
5.89
3.63
1.38
-0.61
-2.28
-3.72
-5.10
-6.55
-8.11
-9.71
-11.22
-12.48
-13.25
-13.31
-12.45
-10.59
-7.86
-4.54
-1.04
2.29
5.18
7.49
9.16
10.16
10.51
10.33
9.81
9.24
8.92
9.00
9.50
10.30
11.22
12.12
12.92
13.58
14.10
14.47
14.70
14.85
15.01
15.24
15.59
16.04
16.53
17.02
17.52
18.12
18.96
20.21
21.90
23.98
26.29
28.74
31.37
34.46
38.39
43.55
50.16
58.23
67.58
77.78
88.16
97.73
105.31
109.71
110.14
106.50
99.47
90.36
80.72
71.84
64.48
58.79
54.38
50.61
46.77
42.36
37.07
30.79
23.51
15.25
5.98
-4.23
-15.12
-26.28
-37.30
-47.91
-58.25
-68.81
-80.21
-92.92
-106.99
-121.92
-136.85
-150.73
-162.60
-171.75
-177.86
-180.99
-181.57
-180.30
-177.96
-175.11
-171.93
-168.05
-162.59
-154.41
-142.54
-126.63
-107.31
-86.17
-65.41
-47.16
-32.84
-22.76
-16.14
-11.62
-7.85
-3.91
0.49
5.31
10.44
15.84
21.49
27.25
32.67
37.15
40.11
41.29
40.86
39.36
37.39
35.46
33.74
32.13
30.35
28.09
25.19
21.74
18.12
14.86
12.53
11.53
11.85
13.16
14.89
16.42
17.39
17.79
17.82
17.83
17.99
18.24
18.32
17.95
16.97
15.51
13.88
12.46
11.51
11.14
11.28
11.84
12.78
14.08
15.65
17.28
18.64
19.40
19.34
18.48
17.08
15.48
13.96
12.64
11.45
10.21
8.76
7.07
5.20
3.36
1.68
0.30
-0.66
-1.10
-0.86
0.16
1.96
4.33
6.87
9.11
10.69
11.46
11.57
11.31
11.03
10.90
10.89
10.85
10.58
9.98
9.16
8.36
7.85
7.80
8.22
8.91
9.60
10.06
10.19
10.07
9.88
9.82
10.01
10.45
11.03
11.57
11.90
11.95
11.73
11.36
10.98
10.73
10.71
10.99
11.64
12.63
13.85
15.02
15.77
15.79
14.97
13.55
11.99
10.79
10.21
10.17
10.30
10.20
9.63
8.60
7.31
5.97
4.66
3.32
1.89
0.42
-0.84
-1.59
-1.56
-0.72
0.67
2.16
3.22
3.49
2.83
1.37
-0.51
-2.34
-3.62
-3.89
-2.76
-0.05
4.18
9.50
15.14
20.13
23.57
24.86
23.94
21.24
17.55
13.71
10.44
8.11
6.76
6.14
5.95
5.87
5.77
5.63
5.55
5.62
5.80
5.99
6.05
5.81
5.15
4.00
2.30
0.07
-2.54
-5.30
-7.94
-10.23
-12.15
-13.85
-15.61
-17.68
-20.18
-23.10
-26.30
-29.58
-32.66
-35.22
-36.92
-37.62
-37.46
-36.98
-36.88
-37.75
-39.74
-42.43
-44.99
-46.42
-45.93
-43.07
-37.75
-30.15
-20.80
-10.56
-0.68
7.47
12.73
14.61
13.49
10.43
6.72
3.38
0.82
-1.10
-2.68
-4.12
-5.24
-5.63
-4.96
-3.19
-0.75
1.68
3.48
4.28
4.12
3.32
2.29
1.30
0.47
-0.26
-0.99
-1.80
-2.66
-3.54
-4.45
-5.41
-6.49
-7.67
-8.83
-9.67
-9.83
-8.95
-6.82
-3.43
0.95
5.84
10.67
14.90
18.15
20.22
21.19
21.28
20.78
20.00
19.18
18.49
18.01
17.76
17.72
17.82
17.93
17.91
17.68
17.22
16.59
15.95
15.43
15.08
14.81
14.41
13.65
12.34
10.42
8.02
5.33
2.52
-0.32
-3.25
-6.39
-9.82
-13.60
-17.68
-21.95
-26.24
-30.28
-33.77
-36.41
-37.94
-38.25
-37.35
-35.43
-32.73
-29.55
-26.13
-22.69
-19.37
-16.28
-13.42
-10.73
-8.17
-5.70
-3.36
-1.22
0.68
2.38
3.92
5.37
6.74
7.94
8.85
9.38
9.56
9.52
9.45
9.48
9.62
9.79
9.87
9.77
9.51
9.12
8.59
7.83
6.71
5.11
3.04
0.74
-1.45
-3.14
-4.02
-3.99
-3.11
-1.60
0.28
2.25
4.14
5.85
7.34
8.60
9.59
10.18
10.22
9.63
8.45
6.93
5.42
4.25
3.60
3.38
3.37
3.31
3.07
2.69
2.29
1.94
1.60
1.18
0.61
-0.06
-0.64
-0.95
-0.90
-0.60
-0.30
-0.29
-0.75
-1.70
-3.00
-4.39
-5.60
-6.37
-6.49
-5.88
-4.56
-2.66
-0.39
2.02
4.31
6.30
7.86
8.92
9.52
9.71
9.57
9.17
8.51
7.64
6.61
5.54
4.59
3.87
3.45
3.24
3.15
3.04
2.84
2.53
2.14
1.70
1.23
0.79
0.39
0.05
-0.26
-0.62
-1.19
-2.08
-3.35
-4.97
-6.83
-8.72
-10.37
-11.51
-11.89
-11.38
-9.96
-7.75
-5.03
-2.13
0.64
3.06
5.04
6.61
7.81
8.68
9.27
9.57
9.58
9.37
9.02
8.69
8.52
8.56
8.79
9.06
9.21
9.16
8.90
8.50
8.04
7.57
7.06
6.46
5.75
4.96
4.16
3.43
2.82
2.34
1.97
1.71
1.52
1.40
1.36
1.53
2.09
3.30
5.34
8.29
12.04
16.38
21.10
26.05
31.19
36.53
41.97
47.27
52.07
56.07
59.18
61.66
64.05
67.04
71.26
77.02
84.12
91.84
98.97
104.08
105.91
103.68
97.32
87.50
75.35
62.02
48.35
34.73
21.23
7.89
-5.03
-17.04
-27.60
-36.34
-43.34
-49.05
-54.09
-58.96
-63.78
-68.29
-71.97
-74.28
-74.89
-73.74
-71.01
-67.07
-62.30
-57.12
-51.99
-47.33
-43.54
-40.89
-39.45
-39.05
-39.31
-39.74
-39.88
-39.44
-38.35
-36.74
-34.77
-32.55
-30.14
-27.56
-24.82
-22.01
-19.20
-16.40
-13.54
-10.54
-7.39
-4.21
-1.33
0.87
2.10
2.26
1.45
-0.10
-2.13
-4.44
-6.83
-9.07
-10.90
-12.02
-12.21
-11.36
-9.57
-7.07
-4.14
-1.06
2.01
4.97
7.78
10.39
12.72
14.64
16.01
16.65
16.49
15.53
13.94
11.99
9.93
7.99
6.20
4.52
2.89
1.33
-0.06
-1.20
-2.07
-2.85
-3.80
-5.14
-6.94
-9.04
-11.10
-12.74
-13.69
-13.96
-13.79
-13.53
-13.58
-14.17
-15.41
-17.19
-19.26
-21.25
-22.72
-23.25
-22.59
-20.70
-17.76
-14.20
-10.46
-6.96
-3.99
-1.69
-0.14
0.65
0.74
0.29
-0.46
-1.23
-1.86
-2.28
-2.58
-2.88
-3.22
-3.58
-3.84
-3.87
-3.64
-3.22
-2.76
-2.40
-2.25
-2.33
-2.66
-3.26
-4.18
-5.46
-7.06
-8.85
-10.64
-12.24
-13.57
-14.65
-15.62
-16.59
-17.57
-18.42
-18.87
-18.67
-17.71
-16.03
-13.89
-11.66
-9.70
-8.29
-7.50
-7.25
-7.29
-7.34
-7.16
-6.58
-5.54
-4.05
-2.16
-0.01
2.20
4.24
5.87
6.95
7.53
7.85
8.21
8.87
9.89
11.08
12.13
12.71
12.63
11.96
10.95
9.95
9.25
8.94
8.94
9.08
9.15
9.03
8.70
8.19
7.57
6.94
6.41
6.07
6.02
6.33
7.03
8.04
9.25
10.41
11.17
11.09
9.73
6.89
2.68
-2.45
-7.88
-13.00
-17.37
-20.78
-23.21
-24.68
-25.27
-25.13
-24.48
-23.59
-22.75
-22.07
-21.51
-20.87
-19.88
-18.37
-16.33
-13.93
-11.47
-9.30
-7.72
-6.88
-6.80
-7.29
-8.04
-8.64
-8.67
-7.79
-5.84
-2.87
0.86
4.96
9.00
12.66
15.77
18.30
20.27
21.70
22.53
22.69
22.13
20.93
19.29
17.50
15.85
14.51
13.50
12.72
12.05
11.45
10.98
10.64
10.35
9.92
9.17
8.03
6.61
5.14
3.85
2.80
1.85
0.76
-0.65
-2.38
-4.28
-6.11
-7.67
-8.88
-9.67
-10.00
-9.75
-8.84
-7.28
-5.26
-3.12
-1.24
0.15
1.01
1.49
1.78
1.94
1.89
1.50
0.66
-0.57
-1.99
-3.32
-4.31
-4.86
-5.01
-4.87
-4.51
-3.99
-3.42
-2.92
-2.70
-2.90
-3.59
-4.63
-5.79
-6.85
-7.66
-8.26
-8.85
-9.64
-10.74
-12.09
-13.45
-14.48
-14.91
-14.59
-13.48
-11.64
-9.16
-6.15
-2.69
1.08
5.01
8.93
12.70
16.20
19.37
22.18
24.60
26.61
28.22
29.51
30.64
31.80
33.09
34.51
35.97
37.30
38.36
39.03
39.20
38.76
37.68
36.01
33.92
31.65
29.41
27.36
25.50
23.83
22.30
20.87
19.44
17.82
15.76
13.07
9.87
6.53
3.66
1.80
1.18
1.63
2.71
3.88
4.84
5.50
5.93
6.21
6.26
5.89
4.85
2.99
0.40
-2.65
-5.74
-8.40
-10.27
-11.17
-11.09
-10.18
-8.69
-6.96
-5.29
-3.96
-3.12
-2.77
-2.81
-3.04
-3.19
-3.07
-2.56
-1.60
-0.27
1.30
2.90
4.32
5.36
5.85
5.72
5.01
3.92
2.74
1.83
1.49
1.88
2.92
4.34
5.74
6.76
7.19
7.02
6.46
5.80
5.32
5.19
5.45
6.02
6.75
7.48
8.04
8.28
8.12
7.54
6.60
5.42
4.12
2.78
1.42
-0.02
-1.55
-3.15
-4.72
-6.07
-7.02
-7.47
-7.38
-6.81
-5.93
-4.96
-4.10
-3.54
-3.34
-3.45
-3.67
-3.75
-3.45
-2.61
-1.18
0.78
3.14
5.75
8.44
11.00
13.23
14.94
16.01
16.40
16.24
15.72
15.08
14.47
13.97
13.59
13.27
12.99
12.72
12.41
11.98
11.27
10.14
8.47
6.29
3.71
0.91
-1.94
-4.70
-7.32
-9.80
-12.17
-14.49
-16.78
-19.01
-21.08
-22.78
-23.88
-24.19
-23.66
-22.41
-20.68
-18.70
-16.62
-14.46
-12.21
-9.87
-7.56
-5.44
-3.70
-2.43
-1.66
-1.29
-1.22
-1.29
-1.33
-1.12
-0.46
0.76
2.48
4.49
6.51
8.34
9.92
11.29
12.39
13.03
12.82
11.33
8.39
4.15
-0.86
-5.95
-10.50
-14.12
-16.74
-18.51
-19.63
-20.22
-20.32
-19.88
-18.91
-17.45
-15.60
-13.51
-11.28
-9.05
-7.01
-5.31
-4.10
-3.40
-3.10
-2.95
-2.70
-2.14
-1.17
0.13
1.62
3.16
4.64
6.06
7.41
8.68
9.78
10.56
10.91
10.72
10.02
8.86
7.32
5.44
3.19
0.61
-2.24
-5.18
-8.03
-10.64
-12.92
-14.83
-16.27
-17.10
-17.14
-16.31
-14.72
-12.68
-10.53
-8.51
-6.67
-4.91
-3.13
-1.30
0.46
2.00
3.28
4.38
5.48
6.74
8.24
9.89
11.55
13.02
14.09
14.55
14.23
13.03
11.03
8.45
5.61
2.76
0.00
-2.76
-5.71
-8.99
-12.58
-16.30
-19.88
-23.04
-25.50
-27.00
-27.25
-25.99
-23.07
-18.59
-12.90
-6.61
-0.42
5.04
9.34
12.27
13.86
14.21
13.47
11.75
9.22
6.11
2.72
-0.54
-3.29
-5.23
-6.26
-6.45
-6.02
-5.27
-4.43
-3.67
-3.03
-2.49
-1.98
-1.46
-0.93
-0.46
-0.12
0.08
0.18
0.29
0.52
0.96
1.69
2.75
4.20
6.09
8.38
10.89
13.34
15.36
16.73
17.35
17.39
17.07
16.57
15.89
14.86
13.23
10.83
7.72
4.19
0.72
-2.18
-4.19
-5.22
-5.44
-5.12
-4.50
-3.66
-2.60
-1.26
0.30
1.89
3.21
3.97
3.97
3.16
1.56
-0.73
-3.66
-7.15
-11.00
-14.85
-18.14
-20.22
-20.58
-19.02
-15.77
-11.44
-6.78
-2.47
1.08
3.76
5.64
6.89
7.64
7.95
7.90
7.59
7.20
6.88
6.69
6.61
6.45
6.08
5.38
4.42
3.36
2.35
1.45
0.61
-0.33
-1.43
-2.69
-4.03
-5.34
-6.62
-7.98
-9.55
-11.36
-13.29
-15.05
-16.33
-16.84
-16.40
-15.02
-12.83
-10.09
-7.16
-4.34
-1.83
0.36
2.38
4.48
6.77
9.25
11.72
13.93
15.71
17.05
18.09
19.00
19.89
20.79
21.54
21.94
21.73
20.67
18.69
15.89
12.60
9.23
6.19
3.66
1.56
-0.34
-2.31
-4.45
-6.65
-8.71
-10.46
-11.90
-13.20
-14.47
-15.67
-16.50
-16.56
-15.57
-13.53
-10.80
-7.89
-5.25
-3.13
-1.56
-0.42
0.40
0.93
1.14
1.07
0.88
0.81
1.13
1.93
3.15
4.50
5.68
6.41
6.59
6.22
5.42
4.33
3.08
1.72
0.24
-1.40
-3.22
-5.19
-7.18
-9.02
-10.48
-11.33
-11.41
-10.71
-9.38
-7.79
-6.31
-5.25
-4.60
-4.07
-3.21
-1.60
0.89
4.07
7.49
10.58
12.85
13.97
13.77
12.21
9.41
5.63
1.29
-3.08
-7.07
-10.42
-13.14
-15.36
-17.28
-18.97
-20.42
-21.51
-22.17
-22.40
-22.28
-21.92
-21.46
-20.93
-20.36
-19.72
-19.01
-18.22
-17.35
-16.36
-15.19
-13.74
-11.95
-9.91
-7.88
-6.26
-5.55
-6.09
-7.90
-10.68
-13.80
-16.58
-18.51
-19.34
-19.08
-17.88
-15.90
-13.26
-10.16
-6.84
-3.69
-1.08
0.71
1.65
1.89
1.72
1.35
0.91
0.39
-0.22
-0.80
-1.12
-0.86
0.15
1.87
3.97
6.03
7.75
9.05
10.05
10.96
11.85
12.60
12.96
12.75
11.94
10.71
9.32
8.00
6.82
5.71
4.56
3.23
1.68
-0.05
-1.83
-3.46
-4.69
-5.33
-5.27
-4.57
-3.39
-1.92
-0.42
0.93
1.95
2.56
2.75
2.59
2.19
1.66
1.03
0.25
-0.69
-1.73
-2.65
-3.14
-2.90
-1.76
0.29
3.05
6.24
9.50
12.43
14.63
15.77
15.72
14.60
12.77
10.74
8.93
7.55
6.59
5.84
5.09
4.18
3.09
1.84
0.47
-1.03
-2.63
-4.26
-5.70
-6.73
-7.12
-6.79
-5.78
-4.29
-2.57
-0.89
0.51
1.43
1.73
1.34
0.35
-1.10
-2.78
-4.47
-5.97
-7.16
-7.97
-8.39
-8.48
-8.35
-8.12
-7.88
-7.63
-7.31
-6.88
-6.33
-5.74
-5.23
-4.91
-4.82
-4.94
-5.16
-5.41
-5.56
-5.57
-5.42
-5.20
-5.04
-5.10
-5.51
-6.28
-7.31
-8.44
-9.47
-10.22
-10.50
-10.19
-9.16
-7.38
-4.93
-2.05
0.91
3.60
5.76
7.32
8.36
9.05
9.52
9.85
10.02
10.00
9.81
9.51
9.27
9.22
9.43
9.85
10.31
10.65
10.73
10.52
10.09
9.50
8.77
7.85
6.64
5.17
3.56
2.07
0.88
0.01
-0.69
-1.45
-2.36
-3.39
-4.41
-5.35
-6.26
-7.24
-8.32
-9.26
-9.65
-9.13
-7.55
-5.12
-2.26
0.58
3.14
5.38
7.33
8.99
10.27
11.00
11.07
10.51
9.51
8.30
7.17
6.31
5.80
5.61
5.61
5.72
5.95
6.40
7.20
8.37
9.73
10.97
11.78
11.98
11.60
10.83
9.92
8.98
8.03
7.02
5.89
4.72
3.58
2.54
1.53
0.41
-0.97
-2.65
-4.42
-5.86
-6.47
-5.97
-4.38
-2.07
0.43
2.71
4.61
6.17
7.55
8.75
9.65
10.05
9.85
9.22
8.48
8.01
8.03
8.54
9.31
10.05
10.57
10.78
10.74
10.60
10.46
10.36
10.21
9.82
8.99
7.60
5.68
3.40
1.06
-1.14
-3.10
-4.89
-6.65
-8.44
-10.20
-11.72
-12.76
-13.20
-13.05
-12.41
-11.36
-9.92
-8.06
-5.76
-3.09
-0.23
2.63
5.30
7.67
9.68
11.26
12.28
12.62
12.20
11.11
9.58
7.89
6.32
5.05
4.11
3.46
2.98
2.55
2.07
1.53
0.95
0.44
0.09
-0.04
0.04
0.16
0.14
-0.19
-0.83
-1.68
-2.55
-3.32
-3.97
-4.56
-5.18
-5.87
-6.63
-7.42
-8.17
-8.76
-9.00
-8.66
-7.57
-5.69
-3.19
-0.38
2.42
4.99
7.23
9.13
10.64
11.67
12.15
12.08
11.63
11.04
10.49
10.01
9.45
8.60
7.32
5.65
3.79
2.01
0.52
-0.59
-1.35
-1.80
-1.95
-1.80
-1.36
-0.73
-0.07
0.49
0.83
0.99
1.04
1.11
1.24
1.44
1.68
1.99
2.47
3.29
4.63
6.58
9.11
12.02
14.98
17.62
19.62
20.79
21.07
20.57
19.48
18.05
16.49
14.93
13.46
12.09
10.82
9.64
8.59
7.69
6.97
6.38
5.82
5.09
3.94
2.13
-0.46
-3.80
-7.71
-11.91
-16.12
-20.13
-23.85
-27.27
-30.37
-33.07
-35.22
-36.61
-37.13
-36.71
-35.38
-33.16
-30.02
-25.96
-21.03
-15.41
-9.45
-3.64
1.58
5.91
9.31
11.90
13.91
15.46
16.55
17.08
16.97
16.25
15.09
13.76
12.47
11.29
10.20
9.08
7.89
6.67
5.56
4.62
3.77
2.80
1.48
-0.31
-2.47
-4.75
-6.89
-8.77
-10.46
-12.15
-14.00
-15.97
-17.74
-18.86
-18.95
-17.82
-15.57
-12.57
-9.26
-6.06
-3.25
-0.91
0.96
2.44
3.56
4.36
4.89
5.26
5.66
6.22
7.04
8.09
9.21
10.24
11.07
11.60
11.83
11.73
11.28
10.46
9.33
7.93
6.31
4.45
2.27
-0.32
-3.35
-6.70
-10.12
-13.38
-16.27
-18.70
-20.58
-21.76
-22.01
-21.13
-19.15
-16.38
-13.34
-10.57
-8.34
-6.57
-4.98
-3.30
-1.53
0.00
0.86
0.72
-0.34
-1.89
-3.30
-4.05
-3.89
-2.98
-1.72
-0.57
0.20
0.57
0.74
0.93
1.25
1.63
1.95
2.20
2.51
3.13
4.18
5.53
6.83
7.67
7.88
7.66
7.48
7.86
9.11
11.24
14.04
17.29
20.87
24.78
29.02
33.43
37.62
41.07
43.34
44.23
43.91
42.78
41.31
39.79
38.21
36.31
33.70
30.04
25.12
18.90
11.55
3.46
-4.77
-12.42
-18.84
-23.67
-26.95
-29.06
-30.47
-31.56
-32.50
-33.35
-34.21
-35.25
-36.59
-38.18
-39.60
-40.24
-39.50
-37.16
-33.39
-28.77
-23.93
-19.34
-15.22
-11.52
-8.09
-4.86
-1.85
0.85
3.20
5.18
6.91
8.48
9.95
11.33
12.59
13.72
14.69
15.49
16.06
16.25
15.90
14.87
13.17
10.96
8.53
6.14
3.90
1.71
-0.71
-3.63
-7.21
-11.36
-15.79
-20.06
-23.66
-26.18
-27.34
-27.03
-25.34
-22.55
-19.06
-15.35
-11.82
-8.73
-6.23
-4.25
-2.69
-1.44
-0.44
0.33
0.92
1.35
1.73
2.15
2.72
3.42
4.20
4.92
5.46
5.75
5.83
5.79
5.73
5.67
5.48
5.00
4.13
2.86
1.35
-0.15
-1.41
-2.32
-2.91
-3.34
-3.70
-3.96
-3.94
-3.39
-2.13
-0.17
2.31
5.04
7.82
10.61
13.42
16.23
18.90
21.15
22.70
23.41
23.40
22.90
22.18
21.35
20.44
19.41
18.26
17.07
15.88
14.61
13.04
10.94
8.17
4.84
1.15
-2.62
-6.30
-9.79
-13.04
-15.91
-18.22
-19.79
-20.58
-20.73
-20.50
-20.23
-20.12
-20.16
-20.13
-19.69
-18.54
-16.53
-13.72
-10.32
-6.61
-2.79
0.98
4.54
7.74
10.32
12.10
13.03
13.26
13.15
13.03
13.09
13.28
13.38
13.20
12.69
11.98
11.31
10.88
10.73
10.77
10.83
10.81
10.65
10.38
9.96
9.29
8.22
6.66
4.70
2.57
0.46
-1.59
-3.79
-6.49
-9.95
-14.16
-18.77
-23.25
-27.00
-29.60
-30.73
-30.28
-28.29
-25.02
-20.96
-16.77
-13.06
-10.20
-8.17
-6.71
-5.55
-4.58
-3.95
-3.82
-4.18
-4.74
-5.04
-4.74
-3.78
-2.43
-1.04
0.14
1.15
2.20
3.50
5.01
6.50
7.62
8.16
8.12
7.69
7.12
6.57
6.10
5.67
5.24
4.77
4.31
3.96
3.80
3.88
4.06
4.10
3.72
2.76
1.33
-0.19
-1.30
-1.62
-1.04
0.22
1.79
3.30
4.51
5.38
5.93
6.15
6.03
5.49
4.49
3.07
1.28
-0.77
-2.93
-5.03
-6.90
-8.38
-9.41
-10.02
-10.35
-10.52
-10.64
-10.72
-10.73
-10.58
-10.21
-9.56
-8.61
-7.39
-5.92
-4.24
-2.40
-0.43
1.63
3.76
5.96
8.16
10.24
12.03
13.29
13.82
13.49
12.29
10.33
7.88
5.25
2.74
0.52
-1.35
-2.89
-4.10
-4.92
-5.26
-5.11
-4.59
-3.89
-3.23
-2.67
-2.16
-1.56
-0.86
-0.14
0.42
0.76
0.98
1.33
2.11
3.46
5.29
7.34
9.26
10.76
11.75
12.25
12.38
12.23
11.80
11.01
9.67
7.67
5.02
1.94
-1.24
-4.17
-6.68
-8.76
-10.53
-12.09
-13.48
-14.66
-15.70
-16.75
-18.06
-19.79
-21.86
-23.90
-25.31
-25.52
-24.17
-21.32
-17.39
-13.04
-8.86
-5.31
-2.54
-0.53
0.88
1.83
2.38
2.55
2.39
2.08
1.84
1.94
2.48
3.42
4.56
5.66
6.55
7.19
7.64
8.04
8.54
9.26
10.25
11.51
12.92
14.30
15.44
16.22
16.67
17.00
17.49
18.32
19.53
20.97
22.41
23.61
24.35
24.47
23.82
22.27
19.82
16.59
12.82
8.72
4.43
0.01
-4.53
-8.98
-12.89
-15.62
-16.60
-15.59
-12.95
-9.51
-6.32
-4.29
-3.88
-5.00
-7.12
-9.46
-11.20
-11.74
-10.73
-8.23
-4.62
-0.51
3.52
7.03
9.88
12.20
14.22
16.17
18.18
20.23
22.24
24.06
25.56
26.52
26.74
26.03
24.32
21.75
18.73
15.84
13.71
12.71
12.81
13.52
14.08
13.79
12.33
9.88
6.94
4.06
1.50
-0.83
-3.14
-5.50
-7.65
-9.10
-9.48
-8.79
-7.48
-6.28
-5.79
-6.18
-7.20
-8.39
-9.33
-9.80
-9.81
-9.43
-8.68
-7.58
-6.18
-4.65
-3.23
-2.11
-1.32
-0.71
-0.05
0.86
2.12
3.64
5.25
6.70
7.75
8.20
7.95
7.06
5.81
4.57
3.70
3.42
3.72
4.39
5.08
5.47
5.36
4.72
3.66
2.43
1.24
0.24
-0.54
-1.16
-1.65
-1.91
-1.71
-0.70
1.43
4.79
9.27
14.48
19.86
24.81
28.78
31.42
32.62
32.47
31.16
28.88
25.74
21.76
16.98
11.57
5.85
0.25
-4.84
-9.28
-13.21
-17.00
-20.99
-25.33
-29.95
-34.61
-39.03
-43.06
-46.67
-49.85
-52.50
-54.44
-55.36
-54.99
-53.24
-50.27
-46.48
-42.36
-38.34
-34.69
-31.47
-28.56
-25.83
-23.24
-20.89
-18.95
-17.48
-16.37
-15.31
-13.99
-12.26
-10.24
-8.25
-6.65
-5.69
-5.35
-5.44
-5.69
-5.87
-5.87
-5.65
-5.11
-4.09
-2.40
0.12
3.35
7.01
10.58
13.60
15.79
17.14
17.89
18.33
18.70
19.02
19.10
18.65
17.46
15.50
12.97
10.26
7.77
5.77
4.23
2.91
1.43
-0.56
-3.22
-6.50
-10.19
-14.02
-17.74
-21.18
-24.23
-26.82
-28.97
-30.78
-32.42
-34.13
-36.03
-38.06
-39.84
-40.82
-40.34
-37.95
-33.54
-27.47
-20.45
-13.37
-7.03
-1.99
1.51
3.50
4.18
3.83
2.75
1.25
-0.33
-1.65
-2.46
-2.61
-2.06
-0.90
0.72
2.57
4.36
5.83
6.75
7.06
6.86
6.39
5.90
5.58
5.47
5.48
5.54
5.57
5.58
5.56
5.46
5.23
4.83
4.26
3.62
3.03
2.59
2.29
2.00
1.52
0.68
-0.58
-2.13
-3.65
-4.74
-5.02
-4.34
-2.77
-0.56
1.94
4.47
6.89
9.14
11.19
12.87
13.96
14.26
13.71
12.49
10.86
9.08
7.27
5.45
3.60
1.81
0.29
-0.70
-0.99
-0.67
-0.03
0.51
0.59
0.05
-1.02
-2.43
-3.94
-5.41
-6.76
-7.93
-8.84
-9.37
-9.40
-8.90
-8.04
-7.10
-6.44
-6.28
-6.63
-7.34
-8.17
-9.02
-10.00
-11.31
-13.10
-15.19
-17.08
-18.08
-17.60
-15.52
-12.19
-8.39
-4.88
-2.20
-0.43
0.66
1.40
2.03
2.59
3.02
3.26
3.34
3.35
3.38
3.41
3.36
3.15
2.75
2.25
1.81
1.60
1.69
2.07
2.65
3.29
3.84
4.21
4.34
4.21
3.82
3.21
2.37
1.33
0.13
-1.19
-2.53
-3.74
-4.69
-5.24
-5.34
-5.09
-4.74
-4.58
-4.83
-5.46
-6.18
-6.47
-5.86
-4.06
-1.07
2.86
7.35
12.00
16.43
20.27
23.22
25.10
25.94
26.01
25.66
25.21
24.73
24.11
23.13
21.62
19.61
17.30
14.99
12.98
11.42
10.31
9.52
8.80
7.90
6.62
4.90
2.79
0.49
-1.77
-3.78
-5.38
-6.50
-7.16
-7.48
-7.62
-7.78
-8.12
-8.66
-9.27
-9.77
-9.97
-9.85
-9.60
-9.57
-10.10
-11.38
-13.28
-15.45
-17.38
-18.63
-18.99
-18.54
-17.57
-16.45
-15.52
-15.02
-15.03
-15.50
-16.28
-17.19
-18.01
-18.56
-18.71
-18.40
-17.58
-16.22
-14.32
-11.99
-9.40
-6.78
-4.33
-2.13
-0.09
1.93
4.00
6.05
7.83
9.06
9.56
9.34
8.57
7.50
6.32
5.09
3.76
2.19
0.23
-2.20
-5.11
-8.45
-12.11
-15.95
-19.79
-23.36
-26.30
-28.17
-28.54
-27.16
-24.08
-19.66
-14.49
-9.15
-4.06
0.60
4.81
8.57
11.79
14.27
15.83
16.40
16.10
15.21
14.07
12.92
11.91
11.03
10.25
9.55
8.93
8.37
7.81
7.11
6.14
4.83
3.23
1.55
0.08
-0.90
-1.22
-0.88
-0.13
0.63
1.02
0.77
-0.13
-1.50
-3.06
-4.60
-6.05
-7.56
-9.36
-11.61
-14.33
-17.33
-20.23
-22.57
-23.85
-23.71
-21.95
-18.61
-14.00
-8.56
-2.82
2.67
7.51
11.47
14.54
16.91
18.94
20.91
22.91
24.79
26.25
27.03
27.08
26.59
25.93
25.37
24.95
24.50
23.77
22.58
20.96
19.08
17.12
15.15
13.14
10.98
8.60
5.97
3.11
0.05
-3.21
-6.67
-10.17
-13.38
-15.85
-17.18
-17.23
-16.21
-14.56
-12.80
-11.24
-9.87
-8.42
-6.52
-3.84
-0.28
4.05
8.85
13.78
18.41
22.35
25.19
26.61
26.41
24.62
21.55
17.75
13.88
10.52
8.06
6.57
5.91
5.83
6.09
6.62
7.34
8.21
9.10
9.79
10.08
9.81
8.96
7.59
5.81
3.77
1.62
-0.49
-2.39
-3.98
-5.25
-6.32
-7.39
-8.67
-10.26
-12.11
-14.01
-15.64
-16.69
-16.90
-16.14
-14.35
-11.55
-7.83
-3.38
1.48
6.31
10.62
14.04
16.41
17.81
18.51
18.80
18.86
18.78
18.56
18.23
17.85
17.48
17.12
16.68
16.09
15.34
14.56
13.99
13.79
13.94
14.27
14.52
14.53
14.30
13.95
13.53
12.97
12.00
10.27
7.54
3.77
-0.88
-6.09
-11.53
-16.83
-21.54
-25.11
-26.96
-26.62
-24.00
-19.43
-13.58
-7.26
-1.09
4.63
9.85
14.57
18.72
22.05
24.24
25.17
24.99
24.11
23.00
21.93
20.83
19.36
17.15
14.10
10.51
7.02
4.40
3.10
3.18
4.31
5.91
7.45
8.52
8.89
8.35
6.70
3.78
-0.34
-5.34
-10.68
-15.80
-20.43
-24.65
-28.82
-33.31
-38.23
-43.25
-47.71
-50.86
-52.09
-51.15
-48.18
-43.61
-38.01
-31.96
-25.91
-20.17
-14.88
-10.06
-5.70
-1.77
1.70
4.67
7.09
8.96
10.34
11.34
12.06
12.61
13.06
13.51
14.00
14.62
15.35
16.13
16.78
17.13
17.02
16.34
15.09
13.34
11.28
9.12
7.10
5.42
4.18
3.37
2.85
2.39
1.72
0.63
-1.07
-3.44
-6.39
-9.65
-12.80
-15.25
-16.43
-15.93
-13.68
-9.96
-5.37
-0.62
3.69
7.18
9.77
11.58
12.79
13.57
14.08
14.48
14.97
15.75
16.98
18.70
20.86
23.35
26.02
28.73
31.29
33.48
35.04
35.72
35.31
33.75
31.11
27.47
22.96
17.72
11.91
5.81
-0.22
-5.76
-10.45
-14.04
-16.51
-18.08
-19.14
-20.11
-21.39
-23.20
-25.57
-28.37
-31.32
-34.09
-36.27
-37.43
-37.16
-35.23
-31.74
-27.09
-21.95
-17.01
-12.72
-9.17
-6.16
-3.44
-0.83
1.60
3.74
5.50
7.00
8.49
10.26
12.47
15.13
18.03
20.91
23.48
25.49
26.82
27.46
27.58
27.38
27.11
26.88
26.63
26.21
25.42
24.14
22.35
20.12
17.58
14.88
12.19
9.67
7.44
5.45
3.51
1.29
-1.60
-5.43
-10.21
-15.68
-21.22
-26.06
-29.34
-30.45
-29.20
-25.89
-21.26
-16.24
-11.57
-7.62
-4.29
-1.21
1.90
5.04
7.91
10.03
11.10
11.18
10.74
10.41
10.69
11.71
13.21
14.68
15.73
16.24
16.39
16.50
16.77
17.19
17.57
17.68
17.39
16.69
15.65
14.32
12.69
10.75
8.58
6.34
4.25
2.44
0.86
-0.70
-2.59
-5.16
-8.68
-13.24
-18.74
-24.82
-30.83
-35.97
-39.43
-40.66
-39.45
-36.07
-31.09
-25.21
-19.08
-13.22
-8.01
-3.66
-0.26
2.25
4.12
5.65
7.10
8.56
9.99
11.25
12.24
12.93
13.36
13.52
13.34
12.70
11.52
9.85
7.87
5.80
3.84
2.08
0.58
-0.63
-1.50
-1.98
-2.05
-1.75
-1.18
-0.41
0.46
1.31
2.00
2.40
2.47
2.20
1.63
0.74
-0.57
-2.39
-4.74
-7.41
-10.04
-12.23
-13.71
-14.48
-14.69
-14.56
-14.21
-13.54
-12.39
-10.63
-8.28
-5.51
-2.57
0.42
3.52
6.92
10.78
15.06
19.39
23.22
25.94
27.21
27.03
25.69
23.57
20.93
17.76
13.89
9.12
3.38
-3.14
-10.02
-16.82
-23.14
-28.74
-33.54
-37.54
-40.75
-43.20
-44.96
-46.16
-47.06
-47.96
-49.06
-50.32
-51.40
-51.70
-50.61
-47.68
-42.83
-36.36
-28.92
-21.28
-14.17
-8.17
-3.60
-0.50
1.32
2.25
2.72
3.09
3.58
4.17
4.73
5.08
5.16
5.00
4.78
4.62
4.58
4.65
4.79
4.99
5.35
5.96
6.85
7.90
8.85
9.39
9.32
8.59
7.41
6.08
4.94
4.17
3.78
3.53
3.08
2.10
0.42
-1.95
-4.82
-7.84
-10.64
-12.76
-13.79
-13.39
-11.46
-8.22
-4.26
-0.31
2.96
5.18
6.38
6.89
7.14
7.42
7.81
8.19
8.40
8.36
8.13
7.87
7.76
7.89
8.23
8.62
8.87
8.89
8.70
8.47
8.35
8.40
8.53
8.52
8.16
7.38
6.31
5.23
4.42
4.03
3.99
4.11
4.14
3.86
3.18
2.09
0.64
-1.07
-2.89
-4.55
-5.73
-6.11
-5.44
-3.60
-0.72
2.96
7.09
11.24
15.07
18.34
20.96
23.04
24.74
26.21
27.38
27.96
27.57
25.93
23.07
19.33
15.27
11.45
8.15
5.43
3.18
1.31
-0.19
-1.25
-1.81
-1.94
-1.82
-1.73
-1.86
-2.30
-2.98
-3.74
-4.41
-4.88
-5.12
-5.22
-5.27
-5.41
-5.74
-6.34
-7.27
-8.45
-9.74
-10.91
-11.71
-11.94
-11.52
-10.44
-8.77
-6.54
-3.78
-0.57
2.87
6.20
9.02
11.01
12.08
12.34
12.05
11.45
10.72
9.93
9.14
8.46
8.05
8.03
8.39
8.98
9.53
9.78
9.60
9.09
8.48
8.07
8.03
8.32
8.70
8.84
8.55
7.85
6.98
6.26
5.88
5.81
5.76
5.40
4.49
3.02
1.15
-0.81
-2.60
-4.02
-4.92
-5.21
-4.85
-3.81
-2.15
0.03
2.55
5.17
7.63
9.70
11.21
12.15
12.64
12.84
12.85
12.68
12.26
11.61
10.91
10.44
10.43
10.87
11.47
11.79
11.52
10.66
9.49
8.37
7.50
6.85
6.30
5.86
5.59
5.48
5.22
4.27
2.20
-0.93
-4.41
-7.25
-8.76
-9.06
-8.90
-9.13
-9.95
-10.67
-10.08
-7.26
-2.31
3.58
8.75
11.91
12.74
11.90
10.46
9.22
8.35
7.49
6.12
3.97
1.22
-1.71
-4.38
-6.57
-8.33
-9.89
-11.34
-12.62
-13.48
-13.65
-13.05
-11.79
-10.25
-8.87
-8.05
-7.98
-8.70
-10.04
-11.78
-13.66
-15.43
-16.85
-17.73
-18.03
-17.86
-17.48
-17.23
-17.34
-17.88
-18.69
-19.47
-19.91
-19.70
-18.67
-16.71
-13.88
-10.34
-6.46
-2.69
0.55
2.99
4.59
5.46
5.78
5.67
5.21
4.46
3.54
2.61
1.81
1.21
0.77
0.36
-0.12
-0.70
-1.29
-1.77
-2.03
-2.02
-1.79
-1.42
-1.05
-0.75
-0.56
-0.43
-0.22
0.22
0.94
1.80
2.51
2.66
1.96
0.36
-1.92
-4.53
-7.10
-9.39
-11.27
-12.62
-13.23
-12.87
-11.40
-8.88
-5.66
-2.29
0.72
3.08
4.72
5.77
6.40
6.70
6.73
6.56
6.35
6.37
6.86
7.95
9.65
11.78
14.08
16.25
18.07
19.45
20.49
21.40
22.41
23.58
24.77
25.67
26.05
25.91
25.58
25.56
26.17
27.34
28.54
29.08
28.50
26.86
24.62
22.40
20.52
18.92
17.26
15.27
12.87
10.29
7.82
5.57
3.43
1.19
-1.21
-3.57
-5.48
-6.61
-6.87
-6.58
-6.31
-6.60
-7.75
-9.72
-12.19
-14.71
-16.91
-18.57
-19.69
-20.35
-20.70
-20.86
-20.92
-20.96
-21.04
-21.23
-21.57
-22.10
-22.81
-23.67
-24.59
-25.43
-26.05
-26.39
-26.47
-26.38
-26.25
-26.16
-26.12
-26.10
-26.00
-25.73
-25.21
-24.32
-22.96
-21.06
-18.63
-15.80
-12.78
-9.76
-6.86
-4.13
-1.57
0.74
2.61
3.88
4.52
4.70
4.74
4.92
5.39
6.02
6.52
6.61
6.12
5.07
3.59
1.86
0.04
-1.78
-3.60
-5.46
-7.40
-9.44
-11.53
-13.54
-15.29
-16.61
-17.35
-17.51
-17.22
-16.71
-16.26
-16.11
-16.34
-16.87
-17.41
-17.55
-16.92
-15.26
-12.57
-9.01
-4.84
-0.33
4.33
9.05
13.78
18.55
23.36
28.18
32.86
37.24
41.15
44.57
47.67
50.71
53.90
57.33
60.96
64.77
68.76
72.89
76.84
79.91
81.27
80.37
77.40
73.41
69.97
68.55
69.98
74.22
80.67
88.50
96.93
105.24
112.47
117.40
118.64
115.16
106.72
94.03
78.56
62.13
46.49
32.94
22.23
14.43
9.10
5.49
2.87
0.72
-1.18
-2.77
-3.87
-4.23
-3.50
-1.27
2.77
8.51
15.07
20.80
23.58
21.60
14.01
1.42
-14.31
-30.63
-45.14
-56.25
-63.50
-67.47
-69.38
-70.63
-72.41
-75.41
-79.82
-85.31
-91.21
-96.65
-100.86
-103.49
-104.97
-106.56
-110.11
-117.27
-128.42
-142.08
-154.87
-162.53
-161.43
-150.08
-129.60
-103.38
-75.74
-50.48
-29.84
-14.26
-2.99
5.08
10.75
14.29
15.73
15.36
13.99
12.80
12.86
14.68
17.89
21.49
24.36
25.82
25.88
25.06
23.91
22.53
20.56
17.39
12.67
6.57
-0.25
-6.94
-12.83
-17.62
-21.44
-24.60
-27.40
-30.02
-32.48
-34.73
-36.69
-38.31
-39.48
-40.10
-39.97
-38.95
-36.96
-34.12
-30.71
-27.10
-23.64
-20.45
-17.39
-14.16
-10.41
-5.97
-0.92
4.41
9.57
14.09
17.57
19.81
20.82
20.81
20.19
19.37
18.68
18.25
18.06
18.05
18.24
18.69
19.48
20.48
21.46
22.09
22.26
22.13
22.14
22.66
23.84
25.39
26.70
27.13
26.26
24.05
20.75
16.76
12.38
7.74
2.91
-2.07
-6.99
-11.55
-15.42
-18.39
-20.53
-22.15
-23.66
-25.35
-27.13
-28.66
-29.51
-29.56
-29.14
-28.91
-29.48
-30.99
-32.93
-34.32
-34.10
-31.67
-27.14
-21.19
-14.75
-8.55
-2.94
2.09
6.67
10.84
14.44
17.23
19.05
19.91
19.99
19.49
18.49
16.97
14.77
11.78
8.02
3.68
-0.95
-5.56
-9.89
-13.77
-17.16
-19.99
-22.14
-23.33
-23.09
-20.86
-16.27
-9.45
-1.13
7.64
15.72
22.27
26.69
28.52
27.35
22.87
15.24
5.37
-5.18
-14.58
-21.41
-25.05
-25.82
-24.50
-22.02
-19.10
-16.20
-13.58
-11.34
-9.46
-7.77
-6.10
-4.55
-3.50
-3.46
-4.72
-7.17
-10.31
-13.51
-16.33
-18.74
-20.94
-23.11
-25.13
-26.62
-27.12
-26.25
-23.93
-20.38
-16.01
-11.27
-6.58
-2.19
1.75
5.20
8.14
10.52
12.23
13.14
13.21
12.49
11.20
9.61
8.03
6.66
5.65
5.09
5.05
5.58
6.64
8.18
10.05
12.07
14.08
15.96
17.57
18.77
19.41
19.36
18.59
17.22
15.49
13.72
12.13
10.78
9.55
8.22
6.57
4.51
2.08
-0.52
-3.06
-5.25
-6.88
-7.73
-7.69
-6.73
-4.96
-2.62
-0.06
2.37
4.45
6.10
7.42
8.55
9.57
10.44
11.01
11.10
10.61
9.62
8.35
7.13
6.21
5.72
5.59
5.60
5.52
5.20
4.61
3.86
3.10
2.37
1.64
0.76
-0.40
-1.82
-3.33
-4.66
-5.56
-5.96
-5.92
-5.69
-5.50
-5.56
-5.98
-6.77
-7.88
-9.16
-10.37
-11.22
-11.40
-10.74
-9.21
-6.97
-4.26
-1.35
1.54
4.23
6.62
8.65
10.29
11.56
12.52
13.21
13.66
13.88
13.85
13.60
13.24
12.86
12.54
12.25
11.90
11.37
10.64
9.80
9.00
8.38
7.91
7.49
6.92
6.08
4.99
3.81
2.74
1.93
1.36
0.92
0.41
-0.29
-1.23
-2.37
-3.68
-5.12
-6.63
-8.11
-9.36
-10.12
-10.15
-9.38
-7.89
-5.91
-3.69
-1.45
0.70
2.68
4.43
5.84
6.77
7.13
6.90
6.22
5.40
4.79
4.65
5.06
5.85
6.69
7.30
7.50
7.31
6.89
6.41
5.96
5.50
4.96
4.29
3.52
2.71
1.85
0.90
-0.21
-1.49
-2.83
-4.07
-5.04
-5.75
-6.34
-7.08
-8.15
-9.61
-11.25
-12.68
-13.48
-13.34
-12.16
-10.09
-7.44
-4.54
-1.70
0.88
3.05
4.71
5.84
6.50
6.80
6.89
6.93
6.96
6.99
7.00
6.96
6.90
6.88
6.89
6.89
6.83
6.67
6.47
6.30
6.14
5.92
5.45
4.59
3.29
1.71
0.05
-1.47
-2.76
-3.84
-4.84
-5.86
-6.92
-8.02
-9.15
-10.32
-11.52
-12.67
-13.56
-13.92
-13.51
-12.26
-10.24
-7.72
-4.97
-2.25
0.28
2.53
4.47
6.03
7.19
7.94
8.32
8.41
8.28
8.01
7.65
7.27
6.91
6.62
6.43
6.30
6.22
6.16
6.13
6.16
6.26
6.39
6.45
6.30
5.83
5.01
3.95
2.83
1.84
1.07
0.45
-0.19
-1.03
-2.19
-3.73
-5.56
-7.59
-9.67
-11.64
-13.26
-14.25
-14.33
-13.40
-11.51
-8.95
-6.10
-3.32
-0.82
1.38
3.34
5.17
6.91
8.47
9.72
10.56
10.97
11.10
11.22
11.62
12.47
13.73
15.13
16.33
17.04
17.19
16.90
16.44
16.07
15.89
15.81
15.67
15.31
14.68
13.80
12.69
11.28
9.46
7.16
4.41
1.43
-1.52
-4.21
-6.57
-8.70
-10.83
-13.17
-15.79
-18.52
-20.93
-22.60
-23.16
-22.52
-20.87
-18.60
-16.09
-13.57
-11.10
-8.57
-5.97
-3.44
-1.22
0.39
1.29
1.57
1.45
1.21
1.07
1.16
1.53
2.18
2.98
3.75
4.29
4.44
4.20
3.69
3.10
2.62
2.27
2.00
1.69
1.24
0.58
-0.30
-1.39
-2.60
-3.87
-5.07
-6.08
-6.81
-7.27
-7.60
-7.97
-8.62
-9.72
-11.36
-13.43
-15.70
-17.77
-19.21
-19.59
-18.69
-16.49
-13.22
-9.24
-4.99
-0.82
3.00
6.31
9.01
11.06
12.45
13.25
13.61
13.71
13.74
13.78
13.79
13.71
13.47
13.08
12.66
12.32
12.12
12.04
11.95
11.67
11.12
10.28
9.21
8.07
6.99
6.06
5.27
4.52
3.69
2.63
1.34
-0.10
-1.57
-2.92
-4.11
-5.15
-6.14
-7.15
-8.21
-9.37
-10.69
-12.25
-14.02
-15.81
-17.23
-17.82
-17.19
-15.26
-12.25
-8.60
-4.82
-1.25
1.94
4.73
7.13
9.13
10.61
11.56
12.03
12.26
12.49
12.90
13.51
14.20
14.79
15.18
15.42
15.61
15.85
16.15
16.38
16.39
16.05
15.32
14.22
12.77
10.98
8.91
6.61
4.25
1.98
-0.08
-1.90
-3.56
-5.12
-6.66
-8.23
-9.83
-11.50
-13.29
-15.28
-17.51
-19.95
-22.44
-24.69
-26.26
-26.73
-25.74
-23.23
-19.42
-14.81
-10.06
-5.68
-2.01
0.91
3.21
5.07
6.62
7.88
8.81
9.38
9.63
9.71
9.88
10.33
11.19
12.37
13.64
14.76
15.50
15.83
15.85
15.70
15.52
15.33
15.09
14.71
14.16
13.45
12.65
11.79
10.89
9.92
8.85
7.67
6.37
5.02
3.62
2.17
0.59
-1.27
-3.56
-6.37
-9.63
-13.12
-16.45
-19.19
-20.90
-21.29
-20.31
-18.13
-15.12
-11.76
-8.47
-5.56
-3.13
-1.16
0.44
1.69
2.57
3.04
3.10
2.90
2.70
2.76
3.25
4.18
5.40
6.72
7.91
8.87
9.50
9.76
9.64
9.13
8.31
7.31
6.26
5.26
4.35
3.51
2.64
1.67
0.52
-0.81
-2.30
-3.87
-5.43
-6.91
-8.27
-9.54
-10.81
-12.27
-14.05
-16.21
-18.61
-20.92
-22.69
-23.49
-23.06
-21.41
-18.77
-15.52
-12.01
-8.51
-5.14
-1.95
1.02
3.69
5.98
7.82
9.25
10.37
11.33
12.22
13.09
13.92
14.70
15.42
16.11
16.84
17.59
18.31
18.93
19.33
19.46
19.29
18.88
18.25
17.46
16.54
15.43
14.08
12.41
10.38
8.07
5.67
3.37
1.30
-0.56
-2.40
-4.45
-6.85
-9.55
-12.23
-14.44
-15.69
-15.67
-14.31
-11.76
-8.41
-4.72
-1.10
2.11
4.73
6.71
8.10
8.97
9.44
9.63
9.70
9.85
10.22
10.92
11.89
12.96
13.88
14.42
14.42
13.84
12.71
11.12
9.16
6.98
4.77
2.74
1.08
-0.11
-0.89
-1.46
-2.10
-3.06
-4.43
-6.17
-8.16
-10.29
-12.52
-14.91
-17.50
-20.29
-23.17
-26.04
-28.75
-31.15
-33.06
-34.19
-34.25
-32.97
-30.27
-26.36
-21.68
-16.75
-11.98
-7.66
-3.88
-0.69
1.88
3.77
4.96
5.47
5.38
4.85
4.06
3.18
2.34
1.66
1.16
0.81
0.49
0.06
-0.62
-1.63
-2.96
-4.49
-6.01
-7.31
-8.27
-8.92
-9.44
-10.12
-11.18
-12.69
-14.42
-16.01
-17.09
-17.45
-17.09
-16.23
-15.13
-13.99
-12.78
-11.34
-9.37
-6.59
-2.77
2.19
8.19
14.94
21.95
28.56
34.12
38.17
40.44
40.90
39.58
36.39
31.13
23.58
13.83
2.65
-8.33
-16.65
-19.54
-14.75
-1.43
19.24
44.05
68.35
87.31
97.17
96.23
85.17
66.86
45.64
26.34
13.14
8.49
12.28
21.85
32.77
40.42
41.51
35.13
22.74
7.18
-8.61
-22.61
-34.04
-42.94
-49.54
-53.85
-55.66
-54.96
-52.25
-48.59
-45.21
-42.95
-41.77
-40.77
-38.59
-34.16
-27.40
-19.30
-11.53
-5.58
-2.13
-0.80
-0.54
-0.27
0.65
2.14
3.65
4.54
4.43
3.44
2.10
1.04
0.81
1.62
3.29
5.39
7.35
8.74
9.33
9.17
8.40
7.12
5.25
2.53
-1.25
-6.10
-11.67
-17.32
-22.31
-26.09
-28.39
-29.34
-29.25
-28.41
-26.95
-24.84
-21.91
-17.99
-13.09
-7.39
-1.26
4.82
10.42
15.18
18.99
21.97
24.40
26.64
28.93
31.37
33.88
36.20
38.00
38.89
38.55
36.74
33.40
28.60
22.52
15.43
7.61
-0.63
-8.94
-16.88
-24.08
-30.25
-35.29
-39.28
-42.45
-45.03
-47.19
-49.03
-50.58
-51.81
-52.62
-52.76
-51.84
-49.48
-45.46
-39.81
-32.86
-25.20
-17.36
-9.78
-2.58
4.25
10.79
17.06
22.96
28.32
32.98
36.88
40.08
42.73
45.03
47.21
49.44
51.78
54.14
56.24
57.69
58.08
57.14
54.76
50.98
45.97
39.95
33.23
26.20
19.43
13.45
8.71
5.28
2.88
0.97
-1.01
-3.40
-6.32
-9.58
-12.88
-15.84
-18.06
-19.10
-18.54
-16.10
-11.73
-5.74
1.24
8.37
14.86
20.15
24.08
26.80
28.57
29.53
29.63
28.69
26.60
23.56
20.12
16.96
14.56
12.95
11.73
10.30
8.25
5.49
2.33
-0.82
-3.67
-6.14
-8.33
-10.37
-12.38
-14.36
-16.32
-18.28
-20.27
-22.33
-24.43
-26.52
-28.56
-30.57
-32.66
-35.01
-37.80
-41.14
-45.02
-49.23
-53.35
-56.75
-58.78
-58.91
-56.96
-53.11
-47.90
-42.05
-36.22
-30.86
-26.15
-22.04
-18.34
-14.83
-11.37
-7.96
-4.71
-1.79
0.62
2.49
3.91
5.06
6.11
7.13
8.07
8.87
9.49
9.95
10.30
10.58
10.79
10.89
10.84
10.59
10.08
9.28
8.15
6.76
5.23
3.69
2.19
0.65
-1.07
-3.04
-5.19
-7.33
-9.25
-10.91
-12.42
-13.97
-15.60
-17.13
-18.22
-18.50
-17.76
-15.99
-13.36
-10.05
-6.15
-1.66
3.42
9.01
14.91
20.76
26.18
30.79
34.24
36.27
36.79
35.91
34.00
31.57
29.15
27.13
25.71
24.83
24.25
23.57
22.32
20.00
16.27
11.06
4.67
-2.27
-9.02
-14.96
-19.79
-23.52
-26.32
-28.34
-29.69
-30.43
-30.73
-30.77
-30.64
-30.14
-28.87
-26.34
-22.30
-16.85
-10.41
-3.46
3.67
10.82
17.96
24.91
31.33
36.80
41.04
44.02
45.95
47.08
47.53
47.28
46.21
44.37
41.95
39.35
36.95
35.03
33.69
32.86
32.30
31.75
30.93
29.65
27.88
25.69
23.24
20.68
18.10
15.58
13.25
11.20
9.47
7.92
6.27
4.18
1.52
-1.53
-4.48
-6.75
-7.94
-8.05
-7.53
-7.10
-7.45
-8.97
-11.51
-14.42
-16.76
-17.68
-16.79
-14.38
-11.24
-8.27
-5.99
-4.37
-3.03
-1.74
-0.76
-0.76
-2.33
-5.46
-9.33
-12.71
-14.60
-14.89
-14.34
-14.03
-14.66
-16.07
-17.42
-17.81
-16.91
-15.15
-13.42
-12.49
-12.62
-13.45
-14.41
-14.99
-15.08
-14.89
-14.82
-15.17
-16.12
-17.62
-19.49
-21.48
-23.40
-25.17
-26.94
-28.92
-31.35
-34.27
-37.48
-40.61
-43.22
-45.00
-45.81
-45.62
-44.45
-42.25
-39.00
-34.78
-29.86
-24.70
-19.80
-15.60
-12.29
-9.80
-7.85
-6.09
-4.20
-2.02
0.45
3.05
5.58
7.87
9.86
11.68
13.46
15.30
17.14
18.79
20.09
21.02
21.80
22.67
23.79
24.97
25.78
25.70
24.45
22.18
19.38
16.64
14.36
12.55
10.90
9.02
6.65
3.84
0.89
-1.81
-3.91
-5.23
-5.71
-5.32
-4.02
-1.76
1.43
5.33
9.50
13.39
16.54
18.67
19.82
20.20
20.14
19.91
19.64
19.32
18.85
18.13
17.11
15.81
14.31
12.70
11.03
9.28
7.44
5.59
3.89
2.49
1.48
0.73
0.07
-0.71
-1.63
-2.58
-3.37
-3.90
-4.32
-4.95
-6.08
-7.79
-9.91
-12.06
-13.99
-15.70
-17.46
-19.54
-22.01
-24.50
-26.36
-26.86
-25.57
-22.50
-18.13
-13.16
-8.24
-3.83
-0.15
2.77
4.93
6.38
7.17
7.39
7.13
6.47
5.53
4.51
3.70
3.45
4.01
5.34
7.11
8.76
9.67
9.45
7.99
5.55
2.60
-0.28
-2.62
-4.20
-5.10
-5.67
-6.35
-7.53
-9.34
-11.63
-14.09
-16.35
-18.16
-19.49
-20.46
-21.28
-22.18
-23.35
-24.87
-26.63
-28.38
-29.68
-30.13
-29.40
-27.32
-23.86
-19.06
-13.12
-6.50
0.16
6.09
10.77
14.17
16.73
19.03
21.34
23.38
24.51
24.25
22.78
20.88
19.57
19.43
20.25
21.22
21.45
20.58
18.93
17.19
15.91
15.17
14.49
13.25
11.00
7.78
4.12
0.67
-2.07
-4.04
-5.59
-7.25
-9.43
-12.12
-14.92
-17.28
-18.82
-19.61
-20.07
-20.76
-21.98
-23.52
-24.79
-25.02
-23.61
-20.42
-15.73
-10.17
-4.43
0.85
5.33
8.94
11.81
14.15
16.08
17.68
19.02
20.27
21.55
22.80
23.66
23.65
22.55
20.70
18.88
17.92
18.06
18.69
18.69
17.14
13.95
9.96
6.43
4.20
3.20
2.53
1.16
-1.41
-4.87
-8.42
-11.31
-13.30
-14.70
-16.08
-17.91
-20.24
-22.82
-25.23
-27.09
-28.15
